0,1,2,3,4,5,6,7,8,9,10,11,12,13,14,15,16,17,18,19,20,21,22,23,24,25,26,27,28,29,30,31,32,33,34,35,36,37,38,39,40,41,42,43,44,45,46,47,48,49,50,51,52,53,54,55,56,57,58,59,60,61,62,63,64,65,66,67,68,69,70,71,72,73,74,75,76,77,78,79,80,81,82,83,84,85,86,87,88,89,90,91,92,93,94,95,96,97,98,99,100,101,102,103,104,105,106,107,108,109,110,111,112,113,114,115,116,117,118,119,120,121,122,123,124,125,126,127,128,129,130,131,132,133,134,135,136,137,138,139,140,141,142,143,144,145,146,147,148,149,150,151,152,153,154,155,156,157,158,159,160,161,162,163,164,165,166,167,168,169,170,171,172,173,174,175,176,177,178,179,180,181,182,183,184,185,186,187,188,189,190,191,192,193,194,195,196,197,198,199,200,201,202,203,204,205,206,207,208,209,210,211,212,213,214,215,216,217,218,219,220,221,222,223,224,225,226,227,228,229,230,231,232,233,234,235,236,237,238,239,240,241,242,243,244,245,246,247,248,249,250,251,252,253,254,Target
0.2837820300675944,0.35034998215551816,0.42064633138021723,0.48934971647889747,0.5605766496398946,0.617304349707895,0.6667462568080617,0.7002451637612558,0.6898223577652083,0.697334248407898,0.7647891014387597,0.8335324694711593,0.8978967068135632,0.9013073257426686,0.8564301755474061,0.8272583705805511,0.7920012017453725,0.7477246288281658,0.7236976825046983,0.736241096385856,0.7566162313002724,0.7760255195456186,0.7752821423516473,0.787392737438558,0.7918734191581536,0.7776082913712611,0.7727064360411785,0.7929845818656487,0.7909289081888738,0.7536033244247411,0.7013956267069944,0.6346923087951809,0.5655382776713632,0.4958497366419028,0.4237376862426201,0.3547399938393482,0.28477435598403333,0.21248761440486028,0.14017153009457242,0.07237906799823471,0.059896958203499356,0.118003389423772,0.1894000975327029,0.2579856002014188,0.32844343091314454,0.4007446279176584,0.4710517395521472,0.5311589578951454,0.6000504703272497,0.6712423413527061,0.7393702860649888,0.8103861944227565,0.8780803355769805,0.9243109434689453,0.8882066961878506,0.8475346382371017,0.8205502379534423,0.7819984608996463,0.7444647773200957,0.7343746452603597,0.737841303391943,0.7486524593244315,0.73862732916851,0.7422726805798402,0.7601184868805155,0.7560871362979639,0.7556583450954217,0.7750881233494307,0.7710795643875048,0.7312402808492986,0.6650782046334943,0.5957759276029053,0.5253319902408211,0.45681431814007833,0.3850471814769365,0.3165269465581564,0.24598007121330004,0.17403230431021346,0.10568816224767555,0.03617713769959652,0.0,0.04977400881094193,0.11443944201006898,0.17320496997775245,0.23800687922086097,0.30955494193864486,0.3815736079114588,0.4500250133202658,0.5206672456316357,0.5929013592521751,0.6624272593919496,0.7318380293295487,0.8035643270807328,0.871611873486298,0.9371593462879743,0.9517426895741304,0.8980456421305391,0.8555103492149535,0.8332726935850748,0.7955679817145778,0.7557085222443071,0.7482559929267018,0.7522772146568226,0.7556169534951236,0.7461104603122878,0.7549522971203744,0.755909317358851,0.761865510697543,0.7856136367022408,0.7804868226241619,0.7347693053134668,0.667374309221094,0.5972616158631394,0.5287915955322031,0.45825398683768015,0.3882039665587892,0.3192985955120323,0.2471442360974734,0.17595245929052902,0.10782317538763395,0.039325342685983644,0.022753204968209928,0.07952119983307784,0.14973373322258468,0.21779204377938435,0.2892763547879359,0.3616080810226574,0.4339433275744363,0.5062785741262139,0.5785453263865022,0.6482368683710861,0.7174872090286876,0.7893946543681509,0.8577252656209645,0.9195571368044774,0.9165425858209125,0.8696096001519454,0.8460378926041731,0.8134146933542733,0.7705681904185538,0.7427609412270703,0.7554832710284218,0.7827037260497186,0.8252848536466278,0.8582053251760865,0.882285972730472,0.933456615425659,0.9845619329728336,0.9714738595927691,0.9056059581196286,0.8374249169425151,0.7666960951072163,0.6981414075098136,0.6276566587100348,0.5561473410795266,0.49332871918590204,0.42800545465204354,0.35606835125575687,0.2845153548981235,0.24891717309821623,0.3034345982674419,0.3746747145075786,0.4427565982746975,0.5142975305174154,0.5837071444672814,0.6531078872631364,0.720325557359549,0.7761284845524863,0.8034363696844399,0.8038315743840404,0.7830311824172054,0.7742333805532595,0.7769142262476699,0.7661896077155891,0.7778942688314345,0.775194397527547,0.7685932758241606,0.7786083180099159,0.8176162461468258,0.8531741299987926,0.875804951241428,0.9246675429168846,0.9851055312419913,0.9964519723891764,0.9415753527735421,0.8805627350711714,0.8170650357129897,0.7450937173370236,0.6727585728386247,0.6004247875533792,0.5286769444166991,0.46055528399895973,0.38932150112779407,0.3184149305547157,0.2927748949349315,0.3504809315967209,0.41936744118576463,0.4914742348760933,0.5612170372132234,0.6303400592780748,0.6996266756006646,0.7616362813295389,0.7903793706289779,0.7983965417978264,0.7861809978355904,0.7739799415857709,0.785009366929583,0.7716574995533833,0.7576880774374283,0.7662000465194051,0.7613312388467268,0.7565998655926138,0.7624752217538044,0.7975867590241735,0.8361252387965866,0.864351427755624,0.9085046998697502,0.9685786271812383,1.0000000000000002,0.9560344093028793,0.889576056956859,0.8209352946070524,0.750036180564627,0.6818652299903201,0.6105544738499048,0.5470420360118593,0.4826372086545391,0.41080482961812215,0.3482455990916633,0.36725359545264313,0.43437631362574414,0.5041990524790296,0.5755304120110561,0.6436111753091422,0.715144435542486,0.7820879819400128,0.8147504976000078,0.815125881861399,0.7981339887634747,0.7953509829326273,0.8124587024235023,0.8087533756111308,0.7963244681079552,0.7968158367614019,0.7840911550243285,0.7604325690799784,0.7459947368647407,0.766503419024646,0.8094039278438049,0.8435732176736254,0.8755431850940855,0.9288846578362843,0.975911826461736,0.9514401271919851,0.8919056526918198,MI
0.4668143561593432,0.5172575592344364,0.5481901825289488,0.5407934068555744,0.5414709627400089,0.5240791833897998,0.5298768761624633,0.5322287968401187,0.5322329502487277,0.5322330801148709,0.5328791665634878,0.5451057854130341,0.5503119855419802,0.5416169955782588,0.49745961036558217,0.4668585721888139,0.45068327699879207,0.49073010643396886,0.5401983659586409,0.5738916585579168,0.5682492512927859,0.5703458976033446,0.5626611814163391,0.5751033038908493,0.5921394652066039,0.5347731713959463,0.44896237687056884,0.41860501703961095,0.4870169611920412,0.5805202306411692,0.6782455761510722,0.7765913435840273,0.8494282315093149,0.7945151234339791,0.6991557573840153,0.6055799039377567,0.5106806664911083,0.41565232557320675,0.33381340420731487,0.28456768470432836,0.25384402658449057,0.21460555848121166,0.17252563408623667,0.1357615781535073,0.09281628127735386,0.06043597440305959,0.02244772533750261,0.0,0.024275702831245027,0.07209722045894029,0.13516342872869336,0.206157980459039,0.2806127705113717,0.35991383895668383,0.42924835482569623,0.49603312003595246,0.5467456073808341,0.5667556981343025,0.5554778077212892,0.5620057089187984,0.5609459606806131,0.5543738679339123,0.5430963873332431,0.5325282004493785,0.5322612667354654,0.5363526532832692,0.5428771572790803,0.5474671327442655,0.5143327791012453,0.4758374537486767,0.44102060589365477,0.4553500818322549,0.5165361746511552,0.5513719538471342,0.5724615413845071,0.5862420715832295,0.5867226543787032,0.5891539178510725,0.5655393520598149,0.47542694826358645,0.3987849381754085,0.39020154765288373,0.46569626570384104,0.5649198378811899,0.6629581259129393,0.7610397032972416,0.8288912701074245,0.7655254995522411,0.6590952744190055,0.5652997791225305,0.47768307079213823,0.3918932639491777,0.32221933891944987,0.271562449279684,0.24082452677941424,0.21499291765275164,0.19548682754946745,0.16045149797353275,0.12427726337665312,0.08025255667542952,0.04516330949370406,0.04638904663469123,0.07964714289346286,0.1381922341154258,0.20704253460647148,0.28605944615444523,0.35887098180697885,0.4279817118196716,0.49226966106589964,0.5481723919192523,0.5783682460142483,0.5828534771230411,0.5693331372476105,0.5572472084204696,0.5496464204940539,0.5369023377475859,0.5322568130242105,0.5323755582190262,0.5408225118088983,0.5499731659957883,0.5342158928692466,0.48334271234735704,0.45162582961484876,0.43691877805157864,0.48425467044290027,0.5294635410423303,0.5581535957553188,0.5831693098020185,0.598635880230566,0.6282337513657845,0.6280106606052698,0.6018285399164802,0.5725178612747261,0.5315104215838589,0.5197477875034484,0.5583175070621085,0.5900607377097935,0.5939646769703071,0.5937325342588555,0.5842990083856745,0.5874987885205534,0.5940404848182821,0.6023240670386776,0.6136141254130023,0.6275565928442957,0.6332378408545223,0.6424557782714833,0.6133245785875028,0.5734221689512649,0.5169087675636415,0.45328640114987184,0.37597402010634307,0.29825600715612266,0.22875244474035483,0.16155176182995223,0.10744868325333634,0.09699110885461826,0.1340776467125404,0.17614224551064517,0.212865212398881,0.24834019695915632,0.27721122973208967,0.3031092304269216,0.344233729253804,0.4110940536141565,0.49594778738353407,0.5856277047456957,0.6772890733433714,0.7741273109773004,0.8707022006661935,0.9553832114549552,0.9747917974142633,0.9056886479326738,0.8178483705835791,0.7201065781560438,0.6344918894252753,0.6477758755479974,0.7089943806015135,0.6816487061534287,0.6494406848003682,0.6482057059673978,0.6381878512789814,0.6226764597876611,0.5968212908519179,0.5533329498660247,0.5166296734751041,0.536497555069531,0.5879884486035643,0.6112341671204957,0.6035789518335042,0.592482688631836,0.5853827469296609,0.5937000909367569,0.6006345429362332,0.611784205452576,0.6183432059125109,0.6211241167280797,0.6185464275145982,0.6204481002301434,0.6078826230222623,0.5766390223471327,0.5205273105670534,0.447064764701274,0.3730082639896142,0.30214138745338825,0.22934921905134376,0.15961360225325283,0.0945038060529173,0.07083112847268014,0.1013710392713203,0.1408055746492729,0.17415234490888754,0.21568786022103792,0.25567894469656505,0.29502335848559325,0.3271725063103754,0.3801516205672293,0.4598818720203286,0.5484039432000181,0.6427097585908461,0.7362167228831633,0.8416503051779429,0.9363360828840022,0.9999999999999996,0.9745698497658948,0.8975169368425973,0.8000676240778102,0.7058773230953808,0.6160197253743873,0.6462251171550175,0.7154231144122765,0.7094971254725619,0.6531137899112038,0.6314328379220449,0.6246854974441769,0.6283972479729152,0.617605225015954,0.5823526246934825,0.543528473866465,0.5319190071671462,0.5731906630438268,0.5951654958430823,0.6090422184725428,0.600232965835342,0.593878074615195,0.585927008212626,0.5871143340652094,0.5784590379009527,0.5840343552958425,0.5785996282013302,0.5852573222955444,0.5939848111324819,0.6023885464706371,0.5961001840354463,0.562850549777842,MI
0.4668143561593432,0.5172575592344364,0.5481901825289488,0.5407934068555744,0.5414709627400089,0.5240791833897998,0.5298768761624633,0.5322287968401187,0.5322329502487277,0.5322330801148709,0.5328791665634878,0.5451057854130341,0.5503119855419802,0.5416169955782588,0.49745961036558217,0.4668585721888139,0.45068327699879207,0.49073010643396886,0.5401983659586409,0.5738916585579168,0.5682492512927859,0.5703458976033446,0.5626611814163391,0.5751033038908493,0.5921394652066039,0.5347731713959463,0.44896237687056884,0.41860501703961095,0.4870169611920412,0.5805202306411692,0.6782455761510722,0.7765913435840273,0.8494282315093149,0.7945151234339791,0.6991557573840153,0.6055799039377567,0.5106806664911083,0.41565232557320675,0.33381340420731487,0.28456768470432836,0.25384402658449057,0.21460555848121166,0.17252563408623667,0.1357615781535073,0.09281628127735386,0.06043597440305959,0.02244772533750261,0.0,0.024275702831245027,0.07209722045894029,0.13516342872869336,0.206157980459039,0.2806127705113717,0.35991383895668383,0.42924835482569623,0.49603312003595246,0.5467456073808341,0.5667556981343025,0.5554778077212892,0.5620057089187984,0.5609459606806131,0.5543738679339123,0.5430963873332431,0.5325282004493785,0.5322612667354654,0.5363526532832692,0.5428771572790803,0.5474671327442655,0.5143327791012453,0.4758374537486767,0.44102060589365477,0.4553500818322549,0.5165361746511552,0.5513719538471342,0.5724615413845071,0.5862420715832295,0.5867226543787032,0.5891539178510725,0.5655393520598149,0.47542694826358645,0.3987849381754085,0.39020154765288373,0.46569626570384104,0.5649198378811899,0.6629581259129393,0.7610397032972416,0.8288912701074245,0.7655254995522411,0.6590952744190055,0.5652997791225305,0.47768307079213823,0.3918932639491777,0.32221933891944987,0.271562449279684,0.24082452677941424,0.21499291765275164,0.19548682754946745,0.16045149797353275,0.12427726337665312,0.08025255667542952,0.04516330949370406,0.04638904663469123,0.07964714289346286,0.1381922341154258,0.20704253460647148,0.28605944615444523,0.35887098180697885,0.4279817118196716,0.49226966106589964,0.5481723919192523,0.5783682460142483,0.5828534771230411,0.5693331372476105,0.5572472084204696,0.5496464204940539,0.5369023377475859,0.5322568130242105,0.5323755582190262,0.5408225118088983,0.5499731659957883,0.5342158928692466,0.48334271234735704,0.45162582961484876,0.43691877805157864,0.48425467044290027,0.5294635410423303,0.5581535957553188,0.5831693098020185,0.598635880230566,0.6282337513657845,0.6280106606052698,0.6018285399164802,0.5725178612747261,0.5315104215838589,0.5197477875034484,0.5583175070621085,0.5900607377097935,0.5939646769703071,0.5937325342588555,0.5842990083856745,0.5874987885205534,0.5940404848182821,0.6023240670386776,0.6136141254130023,0.6275565928442957,0.6332378408545223,0.6424557782714833,0.6133245785875028,0.5734221689512649,0.5169087675636415,0.45328640114987184,0.37597402010634307,0.29825600715612266,0.22875244474035483,0.16155176182995223,0.10744868325333634,0.09699110885461826,0.1340776467125404,0.17614224551064517,0.212865212398881,0.24834019695915632,0.27721122973208967,0.3031092304269216,0.344233729253804,0.4110940536141565,0.49594778738353407,0.5856277047456957,0.6772890733433714,0.7741273109773004,0.8707022006661935,0.9553832114549552,0.9747917974142633,0.9056886479326738,0.8178483705835791,0.7201065781560438,0.6344918894252753,0.6477758755479974,0.7089943806015135,0.6816487061534287,0.6494406848003682,0.6482057059673978,0.6381878512789814,0.6226764597876611,0.5968212908519179,0.5533329498660247,0.5166296734751041,0.536497555069531,0.5879884486035643,0.6112341671204957,0.6035789518335042,0.592482688631836,0.5853827469296609,0.5937000909367569,0.6006345429362332,0.611784205452576,0.6183432059125109,0.6211241167280797,0.6185464275145982,0.6204481002301434,0.6078826230222623,0.5766390223471327,0.5205273105670534,0.447064764701274,0.3730082639896142,0.30214138745338825,0.22934921905134376,0.15961360225325283,0.0945038060529173,0.07083112847268014,0.1013710392713203,0.1408055746492729,0.17415234490888754,0.21568786022103792,0.25567894469656505,0.29502335848559325,0.3271725063103754,0.3801516205672293,0.4598818720203286,0.5484039432000181,0.6427097585908461,0.7362167228831633,0.8416503051779429,0.9363360828840022,0.9999999999999996,0.9745698497658948,0.8975169368425973,0.8000676240778102,0.7058773230953808,0.6160197253743873,0.6462251171550175,0.7154231144122765,0.7094971254725619,0.6531137899112038,0.6314328379220449,0.6246854974441769,0.6283972479729152,0.617605225015954,0.5823526246934825,0.543528473866465,0.5319190071671462,0.5731906630438268,0.5951654958430823,0.6090422184725428,0.600232965835342,0.593878074615195,0.585927008212626,0.5871143340652094,0.5784590379009527,0.5840343552958425,0.5785996282013302,0.5852573222955444,0.5939848111324819,0.6023885464706371,0.5961001840354463,0.562850549777842,MI
0.7360978547613515,0.7655068989499441,0.7837955116735509,0.7844839884615422,0.7433982515483621,0.6868821415827502,0.6484450161262179,0.6263718772668159,0.6317314965076175,0.6292300555669381,0.5729326628948106,0.5057341203128523,0.4425831355704591,0.3776297135211218,0.30998740438906974,0.24366796740039748,0.1814432756278878,0.11444099428013427,0.04749013030182164,0.0,0.02601701158818298,0.08640347132767184,0.1532094528783779,0.22089268069788542,0.2881162791590693,0.3505760334090015,0.41644550991082546,0.48411899997580904,0.5518048055949485,0.6194906112140874,0.6871764107720608,0.7547031391875214,0.8181775428130482,0.8809955990862808,0.9048951805476939,0.8799095802303494,0.8668228508188838,0.8658793501083215,0.8661858392941044,0.846113217187723,0.8145763672574868,0.7802917285209587,0.7425608702171831,0.7219137182411934,0.7345223018627274,0.7416254207476964,0.7463008657590973,0.752742802707717,0.7617084769386286,0.76443900210443,0.7547860850554482,0.7400764152833721,0.7179810076965427,0.7059693232230797,0.7243050843132763,0.7494861605959435,0.7448385470746217,0.731744191815469,0.7206010851171958,0.740903848778024,0.7757567528934461,0.8008247240040343,0.8252561162779686,0.8019974609679479,0.7411614863388365,0.6768342555442102,0.6125761114474815,0.5488477436054813,0.48128929108577906,0.4140212587583186,0.3514679521108173,0.28573354364636666,0.21831462463077328,0.15873664204982713,0.10325850964843758,0.05238564440244303,0.07463295133155995,0.13928190346916097,0.20167808808954385,0.26765900340353105,0.3353340431117872,0.4030085415221705,0.4689728997847447,0.5313831495144561,0.5985604893856176,0.6662457016809671,0.733931507300106,0.801617312919245,0.869189975104425,0.9276882439742411,0.9272095430182501,0.8962466019770443,0.8741807012999776,0.8591580871404396,0.8509105805622919,0.8409715084420015,0.8103181105634176,0.7752877742725455,0.7401655435218699,0.7300804369836724,0.7509424998547114,0.7685714346922152,0.7786192429152756,0.7857965488382299,0.7842979035692115,0.7825049176937815,0.7811257260665851,0.7801514316151237,0.7824533728661849,0.781312659114384,0.7641783586106943,0.7534819883977246,0.7691508779433727,0.7913183123888738,0.7955464288121079,0.7723269454895503,0.7134273730030194,0.6514201692313237,0.585208325595622,0.521698370188088,0.45714511363447813,0.38951806346369316,0.3219898070785307,0.2584839836040856,0.19391986266498734,0.12630151449692179,0.060588757379917924,0.022729672633291897,0.060588757379917924,0.1262992051912974,0.19309001122440156,0.25526281004052725,0.321836128377797,0.38951806346369316,0.45709103816776414,0.5209600453680585,0.5851417314846861,0.652742954805239,0.7195324387064337,0.7746029266604575,0.8334647385853469,0.8894157260692097,0.8836757226654213,0.8615070916850482,0.8519883152185939,0.84764890492089,0.8420134739075129,0.8596125813226942,0.8686250081662243,0.8757133929377898,0.8890792338666462,0.9230520858706113,0.9615622867779308,0.9422014644938534,0.8840778097527393,0.8211576270221481,0.7637121311737052,0.7039249040254547,0.6379048878498905,0.586048839645479,0.6095781897996331,0.6743200022081484,0.7363860166195586,0.7939839796853927,0.818493770617329,0.8185614709957272,0.8053077474265598,0.7820743572210906,0.7842197194521454,0.8026613220064798,0.8064537756023522,0.803187312677587,0.8039501676964123,0.8006825367932753,0.8010573128120382,0.8071553783243883,0.8089173142047468,0.800677802556857,0.7916315288234717,0.7751120434696896,0.7558134357846484,0.7757898851793845,0.8126148352018137,0.8460822683162135,0.8674779562780288,0.8753242047479695,0.885581263924401,0.9023481809453204,0.9310453296932482,0.9734607890351883,0.9999999999999998,0.9598046505628091,0.8982087956814055,0.8329073537218394,0.7703417680054332,0.7030660417439198,0.6357766563262,0.573184495558408,0.5091052678012056,0.4904575062532503,0.5493817127085527,0.6157951344127888,0.6779768221411548,0.7431213671508707,0.8037763221311796,0.8458555964946057,0.8436111028936741,0.8161279220082334,0.7927313356298671,0.7563708529734843,0.7486698222340276,0.76237724933529,0.7722122673828136,0.7658451687493393,0.7374974193384187,0.7406562754457797,0.7628736662484761,0.7777017095886807,0.7830295950977402,0.7915597871341653,0.7863100425870226,0.7746306406244909,0.7715157044742189,0.7679032951220719,0.7600347071424496,0.7600625211439418,0.7935832010621315,0.8277290205779537,0.8597271655454393,0.8834528986313746,0.8878905304308926,0.8866867965312231,0.8959343812018266,0.9252766169267426,0.9618758250433177,0.9376152801338224,0.8767794887145075,0.8142166819122829,0.7469056150190714,0.6802611497238862,0.6181169204562214,0.5513601880035213,0.48367937910762965,0.4189890120492598,0.41294529599969537,0.47301824723202385,0.5359440529029655,0.6033077246650334,0.6678296288037697,0.7307721412323702,0.7888101204215636,0.8141696802330802,0.8094950719162879,0.7928493329124178,0.7677416722630814,MI
0.7383436797016673,0.7710080224951011,0.783801402098497,0.8013406380946101,0.8152503145312328,0.8296866361260266,0.8354994532621657,0.8409659382878812,0.8264651570041043,0.8257038822204305,0.8533241439348164,0.8724860899234951,0.8626537171716483,0.8009162510710425,0.717261320044908,0.6337411391004929,0.5539990097498865,0.46783953976094594,0.38271352296291206,0.30379586935663594,0.21841357923174598,0.13181559374800988,0.04669353226670425,0.0054085028144343905,0.0623252367534225,0.1412561178120738,0.22725666461734806,0.31363944702777247,0.39436477519324964,0.47674534576169425,0.5632532526399266,0.6469932603038527,0.7259942084438146,0.8044585431924697,0.8752264098947152,0.9102613343909508,0.9035516410275314,0.8742093899114162,0.8275969244218057,0.7774889483836421,0.7265536808628773,0.677936105258068,0.6616543089933148,0.695877360273437,0.7458425352707386,0.8007693019430288,0.8492303756858558,0.8641162663770633,0.86488042318353,0.8711171626326023,0.8801571008393146,0.8762885838931455,0.8689170764470288,0.8438084584804236,0.8436263973466477,0.8719895837226842,0.8962218700793073,0.8964524935251467,0.8396237018563347,0.7574396831762816,0.6778980618131564,0.5941306271232624,0.5078364936555942,0.4274862730289516,0.3446835380403003,0.2581660837014149,0.1748093987721443,0.09615210541090946,0.04801096439118757,0.09579044760864952,0.17420359480932468,0.26020468264759555,0.34314383730334896,0.4233750551115688,0.5096697854483175,0.596271658347954,0.6828673316612034,0.7677940222482523,0.8458914071572717,0.9143516195867666,0.9509935075063368,0.9646403304827543,0.9462435368707937,0.9037240871510909,0.8529617624349125,0.8023432425012743,0.7674767474402181,0.775758323178008,0.8243434047575223,0.8787661371107017,0.9311783527001561,0.9609403558450448,0.9614145078801019,0.950686104823076,0.9339874794310855,0.9299321859314199,0.9147089318706879,0.8927093359844732,0.8597338155091551,0.839687690264931,0.8538402435517819,0.8436823018268388,0.8273062885936188,0.7710717455156301,0.6922774231730756,0.606210532218331,0.5196089706514767,0.43300701845025047,0.34660869271145833,0.26580657175735756,0.18351572950485184,0.0980979306634483,0.02249773713328118,0.0,0.0670167168010889,0.14568757892134865,0.23092590374052657,0.3172522011052562,0.39765486046386334,0.4803702409377798,0.5640404958017547,0.642648732511602,0.7207016891074199,0.77914034654539,0.7764127050082782,0.7549918639723993,0.7131112687685651,0.6595105074583288,0.6063388758570142,0.556058028016685,0.5136050701211458,0.5090080860187151,0.5554450357855983,0.6128769543504885,0.6716975388424821,0.7316335691388068,0.7864745388931541,0.8206340654503844,0.8341596972987212,0.8565477268404004,0.8703754141739072,0.8632232800248806,0.8380508571597008,0.7930561015248533,0.7391901357967713,0.6808335719758566,0.6207737123356672,0.5604594952168692,0.5387754121757803,0.5786669876071312,0.6313924742107947,0.6845113668258288,0.7379178192448269,0.7806311649814491,0.8127860213246353,0.8252651861652175,0.823395936024275,0.7658427019393382,0.6882854387553435,0.609962207414014,0.5415721170845417,0.4656851743793614,0.4016782420632078,0.43823992360788655,0.5235370830555729,0.6044463841612683,0.6865464249034142,0.7687222169227251,0.8458359501425162,0.8879103976086148,0.8858806067757975,0.8942390255463101,0.8793137172757218,0.8909109936656961,0.9229012745183932,0.9504914151212264,0.9632184042466699,0.9689151649458584,0.9747308058739185,0.9914709403489056,1.0,0.9872051325560621,0.9411889379789281,0.8881812275809805,0.8373410610221833,0.8005261171508918,0.824646911804677,0.8735240393989426,0.9264222080793248,0.9685509618468683,0.9900262409263346,0.9896981280220268,0.9689062646180134,0.9232737240005057,0.8486395471011058,0.7694459528764707,0.6907170541898565,0.6060004541877729,0.5352475135250868,0.56564400592828,0.6497371393475583,0.7315161294305136,0.8124833781812634,0.8923760827029085,0.9643323065840251,0.9659222374350781,0.9344849171214175,0.9333020583819672,0.901087770227874,0.8742728930235911,0.8888942077111627,0.9080768164867895,0.9078865081316675,0.9059587283796317,0.8983695728341269,0.8912562030924093,0.8969710543768065,0.8855680431479925,0.8443545498552482,0.7904644680421621,0.7354388175596213,0.6943966328464412,0.7147813047986474,0.7691194415264916,0.819958106041269,0.8692458061384319,0.9097176787982709,0.935932314995871,0.939420735950874,0.9176970251734303,0.8621006711280524,0.7861216554485119,0.7051104686677506,0.6253340121566161,0.5504067288558668,0.4825666402001664,0.4896907702870089,0.571708921742769,0.6567150065267434,0.7356535039589752,0.8211239539584719,0.9054188227123211,0.9513242244429586,0.9202357513367713,0.8997777272053119,0.8815840623767514,0.8569250345174922,0.8652767502572535,0.8687681088264506,0.8659571183908638,0.8501210710193293,0.8368113175684789,0.8214465213145968,0.808473901623458,0.7902733906317144,MI
0.6670367692234811,0.6260051368503519,0.5689913318442887,0.5008060597064603,0.4277303671416266,0.3709508085090645,0.35092728194763256,0.3339223283364936,0.2909992940203987,0.25496181543298246,0.2217743333405735,0.2759847015662269,0.3710693378704477,0.4681034310286891,0.5659061010613893,0.6647161543363242,0.7469873156276521,0.7889970984824533,0.7730340328245278,0.7747035893257961,0.7848755214161669,0.7932745900219353,0.7880019237176124,0.738887316441142,0.7000043365937312,0.7340505306583485,0.7872642782864598,0.8240423304824029,0.8304186366625628,0.7731904746845497,0.6609092263173328,0.5433500721708338,0.41571612273223946,0.28985808623878184,0.17055979605747917,0.0623193150042769,0.06743197252579325,0.15443735407654846,0.2414494901289841,0.3369180131107081,0.4591598045163179,0.5828538355985746,0.7040922864293637,0.8205921993457406,0.835405078200939,0.7527744986807792,0.6913623725992715,0.6383357859350751,0.5921084734553286,0.5297461009372213,0.46508341816865717,0.38800693627765726,0.3010685662818531,0.2287501107913712,0.19620150867813968,0.2492431727856903,0.3363285453559304,0.43338719429396355,0.5409193834835311,0.6396022631710452,0.710682734590294,0.7343552812580716,0.7352917896052003,0.7421234423192835,0.7530119654163221,0.7537584017002554,0.7144800451919082,0.6729235283100741,0.7054787953403079,0.763613769842159,0.8094101925844044,0.8182332309259632,0.7689271201770624,0.65576016378606,0.5374475206396057,0.4086113225965391,0.2849895160778251,0.1636153501945754,0.04564926044686057,0.0,0.09197150318787162,0.2134923429441884,0.33617599728083225,0.4660461855820779,0.5875510542355935,0.710042638664311,0.8183343727881704,0.8109427670622809,0.7380142994988914,0.6860335222438978,0.6433640216506402,0.5919908180856377,0.5272627215173775,0.45827317190180383,0.3733560747485536,0.29116499734376755,0.2322624008626455,0.2442932178267634,0.3233319277756894,0.4196136261094361,0.521303170210438,0.6253238168779192,0.7124264986106088,0.7576354866129378,0.7587044975342232,0.7604888998165025,0.7678882234053617,0.7795317393477059,0.767453994160985,0.7179844361335397,0.6843754043586754,0.72309646507305,0.7737816202129195,0.8086730527691384,0.8230506429533417,0.7598244277135755,0.643608804914986,0.5263572679257262,0.41018971819669026,0.28787988073338,0.16906490018466713,0.04954624123105145,0.02294927318650819,0.12015751550963683,0.24435527038560978,0.36740392920515297,0.4896074130185408,0.6197533126577082,0.7493672310569501,0.8289387994057946,0.770666925899733,0.7078431560789877,0.6696574058216067,0.6201977058713883,0.5682717166559936,0.5196879091677806,0.5554409059110272,0.6218670503865231,0.6708378200667264,0.7165600694421548,0.7561305145768873,0.8305803645037002,0.9285684044598812,0.9915354097635631,0.9230617938117642,0.8050790479123793,0.6867047101176358,0.5593347488854208,0.4785586512533271,0.5578432320883502,0.6755570137519558,0.7899483035944443,0.8741413235057032,0.8761403761991284,0.8531204573853992,0.817531586465541,0.7710101855384341,0.7623366161583636,0.8118761309733598,0.8324177986534853,0.8233631980772531,0.815267296391829,0.8196005315521739,0.8168794667233004,0.7862192233720255,0.7193597520627255,0.6205675676968456,0.5219336983453886,0.4232325538924353,0.33050704455336377,0.30810645143568816,0.376499382142897,0.4588616757501731,0.536891308573477,0.6013919032469894,0.6609269906365876,0.7071176716058967,0.749487023361201,0.819097827904631,0.9150465971544854,0.9999999999999998,0.9667525093130054,0.8547968841642619,0.7358714275379732,0.6149836039671055,0.541621765326582,0.620922346812234,0.736614543043925,0.8439972571294454,0.8772801297597328,0.8718822242981881,0.8481788299653232,0.7960197125051678,0.7462338317467558,0.7722368452092037,0.8120227221335823,0.80673961565909,0.7965295033740596,0.7891536104125605,0.7881479832002622,0.7660055459909805,0.7020078948831083,0.6061854138871345,0.5090171361467986,0.40685596584272443,0.3137602038082574,0.2625364950516216,0.3126203130908405,0.3897027856311628,0.474506647423955,0.5435404634075296,0.6065548563009362,0.6636721540876354,0.7128833936008554,0.7674018026982046,0.8470046783805831,0.9490793955001993,0.9895699154309756,0.9060962650033015,0.7874139193177319,0.6634112618302093,0.5425955665213869,0.43026382498965465,0.4632004306694888,0.58026017966745,0.6975258525265609,0.8120295658225893,0.8877164601603831,0.8849828218834024,0.8698929940728879,0.8218371553971207,0.7727916422204795,0.78338648423008,0.8314067325016967,0.8480823811645306,0.84204582411524,0.8342024803581645,0.8325137889967598,0.8356911764496664,0.8107314457979238,0.7402338554463881,0.6556813691373649,0.5547008077786588,0.45598093602205103,0.3556579232769852,0.2784217906823969,0.3159779777136553,0.39679136522304526,0.47310488085474467,0.49000047717912554,0.5480342506905067,0.5790373883345292,0.6325156156312748,0.6850879514713968,0.7229664831748746,MI
0.07994957538123293,0.14585508103920242,0.2234466712462595,0.30395607454798435,0.3840128282560993,0.4478311463292075,0.519258665293461,0.5959380716646956,0.6717260759232986,0.748222497654115,0.8128103479072017,0.840927162901131,0.8368522756637338,0.8359935436863011,0.8343940314245379,0.8360597954461282,0.8275268318213993,0.8154304148297988,0.8409874546438776,0.8666292109526628,0.8397366014144112,0.7540448784182776,0.6588696511484042,0.5681899443783511,0.47253493234866606,0.3763242017987707,0.2857103754654198,0.18984980491216996,0.0964738035788475,0.021484449030241937,0.04559541240845,0.1348047863102121,0.2269582002405388,0.32397157438098345,0.41709751017956087,0.509584194584288,0.5973278206968984,0.6147067409799538,0.5704708875896896,0.5103549936601095,0.44053903557635765,0.36202047214695643,0.28438517086854387,0.20865832154276065,0.13561509987008635,0.07806536278355758,0.0947098457699409,0.16463767362898685,0.24690240070022695,0.3280869581685082,0.409852870499148,0.4935854782734115,0.5746479615389852,0.6568289188175056,0.7392876721461725,0.8074764936409662,0.8404772142332759,0.8343571315562326,0.8275096961829247,0.8270675559274465,0.8269234838212676,0.8183124442542948,0.8068479893451062,0.8301789097259689,0.8608656928383105,0.8773958888810478,0.8061633210225785,0.7134510930608324,0.6209536541453073,0.5278743617049548,0.43065022849385803,0.3333170700254031,0.23598917728904523,0.14002620882702999,0.05186856897343972,0.01684163103718861,0.08881835606596622,0.1807557058753193,0.2774075579186195,0.36175609215327564,0.4452952638328924,0.5370197000630716,0.6039059369594286,0.5943616189816061,0.5408603863804855,0.47378143017728336,0.4025837829928105,0.3266304345850326,0.24665801759082728,0.17214625099945358,0.10456793641320239,0.08648361335567434,0.14139719299377296,0.21661692423852674,0.3008567192962568,0.3860220605791327,0.4686466738457824,0.5509367163065464,0.6317305087707139,0.7103684515175055,0.7870096010758032,0.8368997572962726,0.8397336337221106,0.8363699604181385,0.8376534371097852,0.8455154791245685,0.8505859676592711,0.8294282431036937,0.8361810248806654,0.8635906957190025,0.8841143968996106,0.8297674535480075,0.7400959357296033,0.6458408466135008,0.5549997417038606,0.45837063467996164,0.361309882749165,0.2694372393619977,0.17555927857163023,0.07950156061596447,0.0,0.01468830409633004,0.10382963271158585,0.195137816191421,0.29196393841277213,0.3854184513500387,0.4775229763661599,0.5676294867440101,0.6101917433610486,0.5770001916962157,0.5186343116725955,0.4478012060334666,0.3744110754331058,0.29724867752246187,0.21805426663765504,0.13565750111070396,0.06363298211628199,0.01943244754060891,0.04551679253513774,0.09523830829459778,0.1682109914505825,0.2457440623852849,0.32895217309902436,0.4072102766207035,0.4792063416049035,0.5455490094624085,0.6026116567600206,0.6435062618195684,0.6554241526428233,0.5961710222603336,0.5164284567251802,0.5306275429770357,0.6215487581981873,0.7126021173017583,0.8055030486177779,0.8973887675534951,0.9830833145318085,1.0,0.9355936959318305,0.8892077626739687,0.865328379313312,0.8750923285753167,0.8749812569418471,0.8675777636449,0.8610258799438326,0.8617394893670247,0.8704622562643007,0.8630912032457745,0.8112802256793996,0.7391576517320886,0.6612023329021666,0.5807394053856638,0.4975858759787388,0.40888492923452247,0.3273888825189346,0.24609815404057356,0.17055361018865156,0.12670561968787375,0.17538782312167966,0.24988664407922023,0.32547516401454346,0.401488635278791,0.47791924070469616,0.544597757263821,0.6008292189744302,0.6404025566303215,0.6421557316128805,0.5827161138578425,0.5012411409372384,0.49957682415754223,0.5893987263004941,0.6815847214353448,0.7742923648093549,0.864960537368493,0.9557579084201531,0.982069702663813,0.9196517539261273,0.8709072530745601,0.844538029599404,0.8437567493668368,0.8491582275266838,0.8494656296939247,0.856070880024989,0.8612382298810954,0.8648795539253065,0.8618255830278732,0.8191063766777409,0.7453837004846031,0.6723934858332381,0.6018900977690922,0.5218239404117666,0.43919295752127496,0.35466459907916614,0.26837780256935306,0.18861859436638317,0.12643946702653241,0.15108750328686904,0.22779582687108157,0.30399687516284946,0.3808039661482252,0.45439671108460833,0.527323776474466,0.5876977406593487,0.6339264730003904,0.6538645465664763,0.6063360196605145,0.5213846939603588,0.45705528058705447,0.509724200192788,0.6057441606143552,0.6969346755390164,0.7901837054311818,0.880522524335581,0.9672197926548145,0.9884351734817705,0.9240391015062146,0.8796848214279074,0.8531354325317801,0.8584363265635113,0.8673980992840797,0.8640975392159891,0.8594386946333044,0.859508391046989,0.8661144661879789,0.8592091567060465,0.8114233779061766,0.7395886952577413,0.6570090262638288,0.5798552737116471,0.5206045604213552,0.44287107170561435,0.3601635817160287,0.2788217810008098,0.19551804369630954,0.1235520925726884,MI
0.014869376607968832,0.05186785389018822,0.044340600601961544,0.022866721090561093,0.05260082172894287,0.1003385460274071,0.1701611435844299,0.25232593807890114,0.3245874516110243,0.3916363840396184,0.4399811478525315,0.42832834924825347,0.40233577412644816,0.3954088898813719,0.40334836001698715,0.397522969923088,0.3502105811521825,0.33256320743110246,0.372620939354416,0.4063623336107538,0.3593177549209967,0.3079880271271289,0.3611685736715291,0.4554264016624425,0.5512302730915581,0.6413133981880068,0.7310389959772534,0.7332445591242771,0.6409766145793374,0.543381279042376,0.44697538143014715,0.3469840049603756,0.24954419019076135,0.16407755011140557,0.10137839995932052,0.06361598168887395,0.028972093474869176,0.0,0.009876861012184213,0.06460074641348168,0.13026610598583166,0.20169689753859998,0.27855561513959604,0.3481498224170019,0.39167295526939805,0.38504746064469586,0.37424214292287505,0.3888580140138278,0.41188787974260643,0.42805431463686316,0.3975630216960848,0.37588434874012755,0.4122475808094834,0.4646165284589361,0.4655751200600986,0.4037014223696942,0.41329377130801914,0.4997946304125813,0.6030034189951978,0.6986861907198101,0.7292560461117974,0.6510011514967817,0.5556695944588168,0.4570539008272325,0.36280865101799487,0.2706282983898056,0.1886846843763199,0.1276703290509249,0.08607448260919348,0.03885558488694496,0.009432421918075695,0.02297912629089316,0.07569480790078575,0.14461768846200962,0.21501720049193218,0.2844833563080158,0.35011194126870926,0.39426225120158387,0.3768823690027503,0.3511284359410971,0.34866821605261755,0.36091131199645865,0.34953317586378896,0.3148800194600363,0.32128702161808453,0.37689614965285845,0.4073914891691728,0.3638049913847361,0.31858643999339264,0.37366297266858384,0.4690152408261272,0.5635979209025548,0.6405249722681572,0.6036318227418538,0.5078116683022289,0.41321558106887046,0.3187260678808519,0.2270689694175947,0.14705063754024073,0.09294912070966821,0.05764440383913505,0.02348623763908897,0.00953172808752889,0.04261288421220555,0.10358786124999564,0.17466255822927046,0.2535897703968686,0.3293795624006042,0.4030531267801698,0.46478159209449865,0.4969624327012756,0.49306753392705627,0.5112397010597194,0.5429476688463453,0.5680729612814734,0.5502298386169144,0.5144753487580696,0.5326176991731404,0.5875539622711434,0.594524569776143,0.5356225325890009,0.5460945895637694,0.6216722791949714,0.6492440648311386,0.6205335325522738,0.5745055432294888,0.5888768014935284,0.6136439447687816,0.5964026030092429,0.5660466316887649,0.5374928847287483,0.5324301552501196,0.5316302209319854,0.48473535119742817,0.42217264372080754,0.34655486255234846,0.26686018489471075,0.19332800199883193,0.12267860026144928,0.06333602294807306,0.05745436060595721,0.0908130161444396,0.12764884153968414,0.18841714826433242,0.2735297367232623,0.364950294651603,0.4602593840970295,0.5562684643907287,0.6542242269576031,0.7516184202493315,0.8468225025817162,0.9398299041614964,0.995910296108915,0.9388615489521257,0.8413941054002407,0.7421251716356223,0.6517731517123759,0.5603282429135947,0.47183646505900345,0.4514722789095722,0.43315662634119656,0.38370898313041524,0.3604604401245215,0.3872165873280897,0.3936524873478877,0.38801881275910954,0.38675892142477775,0.4158451245720167,0.4397915928120506,0.41435571058608334,0.35872956373783316,0.2939112596328035,0.2185585168269939,0.14642875226887941,0.08417874867923247,0.05253975870692229,0.07837967682722469,0.12643372497175887,0.17002851919813478,0.23966413216578597,0.33384750701915245,0.4291858344584445,0.5242138782812629,0.6193768019478578,0.7171453164402393,0.812343678785262,0.907183689237697,0.993168684696061,1.0,0.9104177956588377,0.8083819809911312,0.7190363925508518,0.6272831566011905,0.539213265192986,0.5222284708307887,0.511115139319219,0.46935253405171107,0.42591259027933903,0.4495722628544394,0.47083980843246076,0.4622091011383418,0.438490048576361,0.4152273599092675,0.4247637048729511,0.4388382832290434,0.40627146751263465,0.3416527416881934,0.27204405034763135,0.19732459701809213,0.12768886929034018,0.06140691933465603,0.04265216137996797,0.07252882816611828,0.1085081793393885,0.15643353147541816,0.2349167706097095,0.3243179065937034,0.4185240843633391,0.5161925195677108,0.6138147972108379,0.7102042817059102,0.8103869855214714,0.9116660867411275,0.9899657984476047,0.9715005529033518,0.8801575015939602,0.7942633277996869,0.7057992951513756,0.6171281967197091,0.5253197372471541,0.4446524475484597,0.4501845904819879,0.4449822461401247,0.3986668396104185,0.385969889940716,0.4286367849700241,0.4409967455290631,0.4332559718193054,0.4473774223158622,0.475390416357357,0.48624298921554576,0.44368043851529393,0.3844928438387196,0.315852013103902,0.2538792678118611,0.2351277767179616,0.2098770039701905,0.1439963757395144,0.09288741606843143,0.09291427796843887,0.1135411407397009,0.1684777776153894,0.21204909896803148,0.2102146343298057,0.15890829449222688,MI
0.645534184021507,0.7120152436312304,0.770177332062842,0.7923973577959478,0.8371063126126272,0.8436908746637122,0.7392224899682116,0.6418573692725094,0.557020230000377,0.48109166314639884,0.44629887861111506,0.4116302904665381,0.4594201274186389,0.4127708406002095,0.3310848902747754,0.2679081528743872,0.227179832406744,0.19522307098869618,0.13973574334547934,0.09107730606329323,0.08655360105491017,0.13952986925478594,0.221141892216961,0.30713174551062394,0.4024191069366694,0.5039847218307743,0.5873236643245989,0.6437590379822544,0.6669516693033049,0.6687177143179053,0.6656889642816837,0.6589498869973478,0.6588206110261723,0.6588206110261723,0.6587522798698817,0.6499168520849001,0.6155726588190702,0.590394955784233,0.5593036088122019,0.5890175782267089,0.6548627617853664,0.6990163513815122,0.71620897273792,0.7390591032191489,0.6558297777037003,0.5659931893058356,0.47418253652499276,0.4100984413100761,0.33073710395491807,0.3065642418036294,0.3623550111824918,0.31624706369385747,0.23455971405335774,0.17243463102148082,0.1234598732850598,0.08130416112826389,0.035864231727645635,0.0,0.011642958375774448,0.07261038344117132,0.15248834387795318,0.24163486146979452,0.3286490653034182,0.42316574711575683,0.5152661391037148,0.5767164285302702,0.589899563420496,0.5851297179050388,0.5936597105764378,0.5925034277506467,0.5771151467339934,0.5850606721442149,0.5975122574948775,0.5948738371790183,0.5553782701240157,0.524500666995201,0.4972664083424778,0.5263226401516299,0.5961600665128053,0.66716353157218,0.7221013965812939,0.765942022734063,0.7956446287202517,0.7125097404441978,0.6071081236367095,0.5202969895144345,0.4516683407549822,0.40675605487094213,0.4052908317523918,0.43803141097529474,0.36018636055403963,0.2871800500441539,0.24685396558929318,0.21010517157998887,0.18889557787484845,0.16389009403416033,0.17163536373309274,0.2279176329839694,0.3136549485610738,0.40021166089579996,0.4962951141750005,0.5857442190221875,0.6753688932828932,0.7549313336102714,0.8017621393931575,0.7899245398488945,0.7635582084096395,0.7355337424393356,0.7022278228080374,0.6811483148739983,0.6640890069851006,0.6514748686766838,0.6347401549435587,0.6065789806438522,0.5901554946611767,0.5618693852138055,0.5938044511242193,0.6679097503504612,0.7237092153406248,0.750019857033315,0.761515308175222,0.6832439894759044,0.5912415050866917,0.5021090480170627,0.43167719391459203,0.459950427153875,0.5286843612035828,0.608671944305264,0.6992272845907563,0.8102888211249382,0.9164299741161872,0.9507833964555572,0.8729712393257607,0.8188965866833544,0.7937684965266203,0.7469165860599443,0.6760815381200072,0.6477914862801111,0.6694015344670765,0.7054969778506952,0.7194125459213403,0.7356023425569793,0.753230739173814,0.7728241747919409,0.8082612748333027,0.8340976079389013,0.8578692618421786,0.8733576335226272,0.8654223527548384,0.8043379983976067,0.7355003400353315,0.6424020986099053,0.5550829972165809,0.4556871194130183,0.3626807221353521,0.285769590768989,0.25210907567394614,0.26209476368708806,0.2986048951904161,0.3285690696097099,0.38224590969881556,0.46752819399678325,0.5496572137837314,0.5607903691070475,0.5495233287833985,0.585075278336324,0.6013798450550976,0.6913823140578965,0.8014183739804897,0.9112959802274694,0.9905533565980851,0.952527293689041,0.8663284652026157,0.8079813023710534,0.7687897894044977,0.6991641445244836,0.624265372048503,0.5835442708744849,0.6106937451929864,0.638346748221569,0.6595580382059989,0.6674066427721663,0.6636132318885455,0.6561817058469384,0.6671115633542315,0.6674846437539541,0.6679596395511243,0.6778917991456099,0.665110170898108,0.6139667080731668,0.5292876644582045,0.4459649926298268,0.3529506809394829,0.26642143636419835,0.17400939600296406,0.09960794148316898,0.09946395080520576,0.13706727086929948,0.17795245535609494,0.22414049824337923,0.283992088091654,0.36601737096107767,0.45733491900794787,0.4946297444324741,0.47909215724389664,0.5171331087387916,0.584828024570617,0.6738948785811449,0.7818669435967931,0.8943231038935422,0.957382266731146,0.8978721017395457,0.807339380072003,0.7758046383288253,0.7452656111949234,0.6832160782772947,0.6524629830955329,0.675645033547176,0.7032155591213609,0.7289207767878172,0.7324559135018833,0.7324648892123227,0.7326907731298249,0.7436229997558481,0.7539308059004242,0.7499726980002204,0.7262645176824489,0.6856979687539306,0.6079481667016706,0.5143592605983627,0.426958155584769,0.335703472234528,0.2463379108503676,0.17115557614660792,0.17341655396916833,0.22135201681574124,0.2733094565287475,0.30999594627311833,0.35722950632077843,0.4340750750117168,0.5195504888300957,0.5967215952935927,0.5859959029265047,0.546141007030641,0.5971797232119309,0.6605509479987197,0.760109897660771,0.8729868380124284,0.9741439505711229,1.0,0.9233807547305064,0.8748564788748814,0.8666179862424932,0.8119173325520186,0.7424658206969696,MI
0.2088422267563399,0.2524602267770739,0.2692346494577236,0.2242691433226458,0.22491479144955262,0.27831960645772935,0.3321436555319075,0.38882726576577475,0.4546937132156419,0.5183395021943757,0.5443847803710209,0.5458359105704469,0.5415500537919096,0.5120173602424711,0.5273909681509779,0.570588482044909,0.6035027053597626,0.6531646375268738,0.7269940283338137,0.8011019899653147,0.8436065361805767,0.7797447291811932,0.692722836754754,0.604912483056308,0.5188335417258976,0.44244113245441175,0.3770248943695975,0.3215288207532645,0.275792672727986,0.23483138413992433,0.1960682319756164,0.19239575202549686,0.23627085484156618,0.29463253070212914,0.36243992948486614,0.4086425271626162,0.42672897698204615,0.43025288942120454,0.42225895642410083,0.4624632475635153,0.5064761254424488,0.533552442422017,0.5920817740685098,0.6678577891633741,0.7443894853986257,0.8279961264627467,0.827843956909494,0.7412943841191142,0.6642728092544141,0.5886974530756688,0.5104375738107656,0.44477239373001587,0.3951718034394056,0.37670475543083537,0.3856130640926019,0.3879854598967494,0.4261812385489927,0.4854641018628467,0.556451470248919,0.6256902219703679,0.6789516205493713,0.6997141883274085,0.721368617514079,0.7105989834446897,0.6657769713237969,0.6334971165210221,0.5891756318381822,0.5426368654898164,0.5629208062251028,0.6325242237529791,0.6579601760136804,0.5828531654956495,0.49664995023409997,0.41073033096754985,0.3253509807562929,0.24567534492203613,0.17746476325997484,0.11277397267358902,0.0640066302992095,0.027431456917449637,0.0,0.017885516777642607,0.0656081622104594,0.13664667042992917,0.20444307238907133,0.26759071712985305,0.3139902096864282,0.3349457545871166,0.3562022634662083,0.3753831198127391,0.4274599016132745,0.46952042814427286,0.4999783300487819,0.5578584115075593,0.6448956177297778,0.7193361371091394,0.7478016691251859,0.6802753902703389,0.5924729545102345,0.5051133747841063,0.42321078439283943,0.3491392072653836,0.2927693061554941,0.25631124174793984,0.2524919520383393,0.2701129609018411,0.3094749058870403,0.3713381632655026,0.4366684511979948,0.5009981473349978,0.5680711481205631,0.5969889878766024,0.5704186579578736,0.531474541333973,0.5095060124115967,0.5350675335334352,0.581179633757835,0.6008099211685327,0.6450836615317801,0.7203436568234287,0.7942601692660434,0.8493314744805391,0.7974289206030973,0.7093063088950604,0.625934465843295,0.6041451285027506,0.6816698666293184,0.7698044385081868,0.8640518603451119,0.9453725687784615,0.9504186003182942,0.8900631820865312,0.8129615902704579,0.7324049959890111,0.6630600840158927,0.6373366382243943,0.6083917818759912,0.5656860472157796,0.5752208528434437,0.6138632522719265,0.6432730275800447,0.6354279890534498,0.5870139484451338,0.5199603009744489,0.45276118989647807,0.38522667966418456,0.334715543108941,0.30797180086752696,0.31263507476520536,0.32532894025894765,0.37716537029011965,0.4494770213703956,0.5402487296428822,0.6290247543007306,0.7165178480648466,0.801415323233388,0.8543542355555287,0.8147394481880799,0.7426224961268733,0.664876598334694,0.5853493928001869,0.5399090323290077,0.5180181139021303,0.47287503464212,0.4272134843287534,0.4004540364185667,0.3772807643126239,0.3554733566587791,0.3104412613516172,0.24514176941132115,0.17440972608399163,0.10648081864717085,0.06082892049927935,0.05798276514167666,0.09257147955731404,0.1450385627034836,0.20030035323932838,0.2690450271789193,0.35060348091927485,0.43535865755204695,0.521727007624079,0.611339579178384,0.6992853986608809,0.7756858224359138,0.7727648992632785,0.697852380989201,0.6262915226718824,0.600439132817578,0.6431263139640258,0.689377190922086,0.7203691390969287,0.7630905255998428,0.7692394826801263,0.7514219333635532,0.723577628837969,0.6740283313447499,0.6029236893493835,0.5343710496045444,0.47266180212655384,0.43611997305788686,0.4340479514241842,0.4280702385962507,0.4667616227673188,0.5412415625217044,0.6206598591996886,0.710238869081302,0.7975925854266821,0.8877135810938315,0.9645188680585006,0.9653393444102218,0.890920411053354,0.8113548878592298,0.7330188222916925,0.6577735238214866,0.5873119046522501,0.5556652752239344,0.5131142150637678,0.46836893780199906,0.4744887570749525,0.4746778409964303,0.4610826059148436,0.4284533516167084,0.3668714145693297,0.30321517476120907,0.2505052101565206,0.2507920385562066,0.29380270114247997,0.33444996026566187,0.3845077365829923,0.4474701257037583,0.5220105077222674,0.6083988187641718,0.6951686464466309,0.7835353736193387,0.8706192310014167,0.954374887884204,1.0,0.9457727796606483,0.8683259359461695,0.794865285385558,0.7184026686288414,0.6552316655404078,0.6194516284189475,0.5789699829372972,0.5726971935322107,0.5930475462447187,0.5939651474939598,0.5791953149192417,0.5337613176656253,0.4714628061538222,0.40911493448274006,0.3541473709775744,0.36474940522201504,0.3836967686851802,0.3523128063739185,MI
0.8315420730402783,0.8150798901091567,0.8060605451734613,0.7971851504483232,0.8104928738695716,0.8241669442830062,0.8295468678692959,0.834466406470822,0.8490368640905699,0.8576461337251009,0.8531061616696849,0.8494713093760822,0.8310983500636355,0.8465119970959629,0.8709864025530212,0.9022820371031555,0.9201068909640464,0.876594582920535,0.8061433524777366,0.7423964546055306,0.7322999647993342,0.7145678235304826,0.6466777281009606,0.5799719475379077,0.5030057728307529,0.42324204387374653,0.3456928361383238,0.27316820432562805,0.21502359961320283,0.17675160791687605,0.15323540737969688,0.11753045915676585,0.08021145310431921,0.04718006465473934,0.018482839989314437,0.01649224290958462,0.06512617263335296,0.12284346782560362,0.18220787890719703,0.25201527236379895,0.32337796772502325,0.39628432176129547,0.47390662365068104,0.5471161934185529,0.6177493499998019,0.6881835740415658,0.7578060529918311,0.8173472633424124,0.8572418710635274,0.8479730864143005,0.8263105142005938,0.8088163121436678,0.7993368758874182,0.8041503750813168,0.8162109981605259,0.8226326726040105,0.8330304770618182,0.8307070431518431,0.8232762114706225,0.8273287986674356,0.8317880124293617,0.8326288578400776,0.8061454504183707,0.8168074459732761,0.8469497165541793,0.8749488268169723,0.8861465319275876,0.8559304191976145,0.7875199350761697,0.7210631375991943,0.6846521972145869,0.7053186423126707,0.6455618979956721,0.5671091391627627,0.48860075405113657,0.4071889686651544,0.33022372029458635,0.2557518309639444,0.19051667666488803,0.15815357469468538,0.13566040120538814,0.10233696704846529,0.06402378787459617,0.029523073405397726,0.0,0.008446665266101938,0.046439510554959096,0.10543871143078687,0.1800580573525239,0.24862396181108704,0.31774925079221195,0.3894460070545043,0.46301430668364363,0.5342312094135386,0.6051195450322178,0.6772819806990367,0.7519099319772249,0.8165968464402675,0.8493932981753309,0.848768647286988,0.832783637178337,0.8126465341155564,0.7967374336955453,0.8095760619732888,0.8332684180630292,0.8571350971337626,0.8762810051172194,0.8925256550284233,0.892828609912484,0.905661238142635,0.8900806292532628,0.8866024390502856,0.9034309312553399,0.9288333434651179,0.9561513527009191,0.9381911010795256,0.8721532908203453,0.8020304015386419,0.75537586103656,0.777201709078071,0.73011930506619,0.6530677398850027,0.5748202831179763,0.49774691791574255,0.4211089381105133,0.347797634331555,0.3064636345374183,0.3551247655356078,0.43657317301531906,0.5148100599425591,0.5932650608507428,0.6717867510991642,0.749133907674868,0.8272011363745417,0.9004128218890888,0.9456749756763203,0.9308934169464245,0.9734522131690044,0.9999999999999998,0.9954575507614074,0.9711774123033463,0.9472713489897291,0.9388275526759549,0.9555126044531679,0.9511749335104052,0.9421328735202772,0.9227984184487841,0.9061531711865005,0.879049613772193,0.8594790344333607,0.8546677458709551,0.8721685916015363,0.8946481011405198,0.8997851995781254,0.8855905529113921,0.8381066512991155,0.7744708086197913,0.7068780388987843,0.6337799996585467,0.5631688400118422,0.49119187130036646,0.4178964392136162,0.3465827486414601,0.2689479199520808,0.19957606055326482,0.13158252268588044,0.07402647014493957,0.04408962667057903,0.06602934522083048,0.09838161959578917,0.13956418999885956,0.16852964300096573,0.19777015887439897,0.2280689527738089,0.2899224286740958,0.36930500046600656,0.4554444487419127,0.5381671933301793,0.6149889413536738,0.6914091208283457,0.7680603639874202,0.8457434841323759,0.8969762139370927,0.8661146666928896,0.8663131455800059,0.9211821103303308,0.9378383772446541,0.9235127163879888,0.8978835961541349,0.8660886022932301,0.8661533477799843,0.8836593051827306,0.8768281214274356,0.8716952358362422,0.8742398537668981,0.875871920398372,0.8746637590296003,0.8681170883308102,0.8554177805432477,0.8436069576113587,0.844572038309191,0.868282621615238,0.8845223084755591,0.8977487271426112,0.8979381658446204,0.8577946218117003,0.8021444435165714,0.7362856497387236,0.6649704350147576,0.5886423032575436,0.5276306597323412,0.4605934466513335,0.3894279623304122,0.32079564901563606,0.24780670028614415,0.18045964724882513,0.12077248902056814,0.06685873372573936,0.0603942611006798,0.09443710720621112,0.12766305928175248,0.16697434672846123,0.19735660654554943,0.23286090598082088,0.27929736043425946,0.3489350796632986,0.42971593909675443,0.5076288605159096,0.5844113698004918,0.6495561707404187,0.7198925625526458,0.7973470099000528,0.8769039266675314,0.9384348218812242,0.9165551428690824,0.8656953522628912,0.9069780334376574,0.9565003514831021,0.9643454060435033,0.9575530664808685,0.9216634580278027,0.8966304702541661,0.8801745043280349,0.8959049080025847,0.8976063800264427,0.8939435977431553,0.8905653920094763,0.8765181095084678,0.8778024203701846,0.8696355303201571,0.8582816203620156,0.8451389696183662,0.8472019700170004,0.8669817516214253,0.8852615730522679,MI
0.013495572181919213,0.08174072329600657,0.16501629588708067,0.248521293021144,0.32805362857046694,0.32804392784994185,0.28550387975842373,0.3167013093710054,0.3933563468967942,0.47735187029235693,0.5672155763885369,0.6600348665665465,0.7488521933235002,0.8236954689572191,0.8790856247201959,0.9155819109367971,0.9211383116736944,0.9211286054460164,0.9163200196657444,0.890527669077573,0.8648938569622842,0.8402413470708692,0.8217819476264956,0.8040214636843541,0.7879949716840118,0.775945830952546,0.7649548964147752,0.7600287817250129,0.7705860150072814,0.765701208436635,0.7309792942004423,0.7181618142961099,0.7645229402090639,0.7927936168287424,0.8145358936533946,0.8201114363329882,0.7467144176019196,0.6489382845016691,0.546346642730466,0.4435748441224412,0.33888647182506126,0.24017105105148895,0.18669368686777732,0.24274497917903792,0.3472395500156509,0.44750690838609763,0.5565273380163211,0.6392691157051806,0.6341778762021555,0.6570886079002349,0.6355646382525482,0.5959542079631164,0.5435929019201411,0.4897052721667139,0.42641560584555727,0.3600982740889882,0.2961945931455574,0.22501334942318252,0.15317632586458707,0.07863049210280137,0.016369718131328703,0.0,0.050201494451230566,0.1255364920439701,0.21090578770159585,0.29642530663459254,0.38935676419301535,0.4796641316755892,0.549404102345306,0.6300951128985122,0.7039246612579282,0.7597404751079244,0.7981576578751342,0.8336109743650844,0.8393705777994169,0.8093078533392086,0.7754884870217063,0.7460474041808078,0.7267388688156546,0.7270109506875935,0.733573235331082,0.7336877569878206,0.7362671563281316,0.7478378728060253,0.7493814872293698,0.7516586912656278,0.7406045589130534,0.726320216147581,0.7631590061642646,0.8177653224412156,0.8655371982719715,0.901573755660662,0.8992130853619469,0.820466895100231,0.717857332615965,0.6062720646150743,0.49515881084405367,0.39405494896153126,0.29183060534476946,0.23351618884882885,0.28492153695150657,0.38329436858642385,0.4914591327271518,0.5916625118130541,0.6761575502155694,0.6799288495497828,0.683393876879121,0.6386533771819725,0.5944768757795873,0.5420049734042682,0.4832301352627999,0.4253600142602756,0.35662186862245715,0.2829589639255352,0.2070044015043413,0.13366217297646665,0.06513541159914271,0.01200703186385299,0.01528586925554265,0.0896003940472685,0.169048671227229,0.25296494161334504,0.3402092108258099,0.43074472286809184,0.5195031183849785,0.6129013560575993,0.702814309239927,0.7867238856734073,0.864843960731962,0.9217641405267876,0.947862128113842,0.9368651219118749,0.9257812747081866,0.9523181138939973,0.9836887719652347,0.9957634499686634,1.0,0.9795013058696131,0.9342742320015418,0.8719252653313405,0.7871538487896999,0.6958645052700194,0.6101970893694788,0.5232362258616083,0.4345413298641492,0.34504737778001227,0.25670627746532126,0.16783395059651607,0.08678797223096768,0.0612997898731622,0.1151506788500174,0.19197287709065236,0.2686470761766553,0.33954352489260264,0.4111307170378713,0.47584125181753256,0.5326297890144738,0.5897952216024072,0.6440289949803213,0.6872110969178258,0.7289028104679365,0.7490359733728389,0.806446707523127,0.7991000288806984,0.7103278181422539,0.6090030897681786,0.5410710758280839,0.6111538397496474,0.7194439755356528,0.8149283878371523,0.9100816762047277,0.9868873517931616,0.9743495649012517,0.9470392742050762,0.9054140818263554,0.853254058520541,0.8029024013197552,0.7799794090644587,0.7993584906942304,0.8021136567973768,0.7931736519614891,0.7854288249107664,0.7737602026226544,0.7711843656552158,0.7712543527356557,0.7777310519423497,0.79863584017997,0.8221298534614663,0.8579992717394433,0.8913009690952847,0.8927722672158507,0.8676775404531267,0.8340074096752423,0.7873820765241568,0.7258104260804252,0.6513839579077638,0.5582120139648348,0.4681118132742923,0.3809873957483165,0.29387428235633584,0.2094688190962133,0.1264346163878669,0.06147460043373454,0.0904770945560458,0.15962102173556536,0.23111930787025958,0.3068850141575177,0.37500839156798893,0.4356342663322019,0.5023080395949657,0.5593827100985895,0.6149528386553911,0.6580773224406555,0.6947079497159616,0.7060338158665194,0.7361556827814955,0.7881233283363382,0.7339400800356479,0.636669538656979,0.538828411241985,0.5486468629517831,0.6501454978368453,0.7476491936461427,0.8414106663916283,0.9095352867535302,0.8862404970434548,0.8576456378276025,0.833024748834597,0.8039814829038248,0.7853447524263788,0.8114950260599878,0.8154721422573208,0.8061828879847095,0.8164007749438493,0.82393797249506,0.8376488263538513,0.8516582512601132,0.8660761001813144,0.8912804716135221,0.9153186312648307,0.944240244680465,0.968143979440427,0.9670377681511462,0.9588719682240407,0.9577036057028621,0.938660997662204,0.8979289167975386,0.832338328000918,0.7453675824011627,0.6596752520040159,0.5771399529244006,0.5514186325512269,0.4991114334162221,0.41339226063990875,0.34040843132069254,MI
0.7360978547613515,0.7655068989499441,0.7837955116735509,0.7844839884615422,0.7433982515483621,0.6868821415827502,0.6484450161262179,0.6263718772668159,0.6317314965076175,0.6292300555669381,0.5729326628948106,0.5057341203128523,0.4425831355704591,0.3776297135211218,0.30998740438906974,0.24366796740039748,0.1814432756278878,0.11444099428013427,0.04749013030182164,0.0,0.02601701158818298,0.08640347132767184,0.1532094528783779,0.22089268069788542,0.2881162791590693,0.3505760334090015,0.41644550991082546,0.48411899997580904,0.5518048055949485,0.6194906112140874,0.6871764107720608,0.7547031391875214,0.8181775428130482,0.8809955990862808,0.9048951805476939,0.8799095802303494,0.8668228508188838,0.8658793501083215,0.8661858392941044,0.846113217187723,0.8145763672574868,0.7802917285209587,0.7425608702171831,0.7219137182411934,0.7345223018627274,0.7416254207476964,0.7463008657590973,0.752742802707717,0.7617084769386286,0.76443900210443,0.7547860850554482,0.7400764152833721,0.7179810076965427,0.7059693232230797,0.7243050843132763,0.7494861605959435,0.7448385470746217,0.731744191815469,0.7206010851171958,0.740903848778024,0.7757567528934461,0.8008247240040343,0.8252561162779686,0.8019974609679479,0.7411614863388365,0.6768342555442102,0.6125761114474815,0.5488477436054813,0.48128929108577906,0.4140212587583186,0.3514679521108173,0.28573354364636666,0.21831462463077328,0.15873664204982713,0.10325850964843758,0.05238564440244303,0.07463295133155995,0.13928190346916097,0.20167808808954385,0.26765900340353105,0.3353340431117872,0.4030085415221705,0.4689728997847447,0.5313831495144561,0.5985604893856176,0.6662457016809671,0.733931507300106,0.801617312919245,0.869189975104425,0.9276882439742411,0.9272095430182501,0.8962466019770443,0.8741807012999776,0.8591580871404396,0.8509105805622919,0.8409715084420015,0.8103181105634176,0.7752877742725455,0.7401655435218699,0.7300804369836724,0.7509424998547114,0.7685714346922152,0.7786192429152756,0.7857965488382299,0.7842979035692115,0.7825049176937815,0.7811257260665851,0.7801514316151237,0.7824533728661849,0.781312659114384,0.7641783586106943,0.7534819883977246,0.7691508779433727,0.7913183123888738,0.7955464288121079,0.7723269454895503,0.7134273730030194,0.6514201692313237,0.585208325595622,0.521698370188088,0.45714511363447813,0.38951806346369316,0.3219898070785307,0.2584839836040856,0.19391986266498734,0.12630151449692179,0.060588757379917924,0.022729672633291897,0.060588757379917924,0.1262992051912974,0.19309001122440156,0.25526281004052725,0.321836128377797,0.38951806346369316,0.45709103816776414,0.5209600453680585,0.5851417314846861,0.652742954805239,0.7195324387064337,0.7746029266604575,0.8334647385853469,0.8894157260692097,0.8836757226654213,0.8615070916850482,0.8519883152185939,0.84764890492089,0.8420134739075129,0.8596125813226942,0.8686250081662243,0.8757133929377898,0.8890792338666462,0.9230520858706113,0.9615622867779308,0.9422014644938534,0.8840778097527393,0.8211576270221481,0.7637121311737052,0.7039249040254547,0.6379048878498905,0.586048839645479,0.6095781897996331,0.6743200022081484,0.7363860166195586,0.7939839796853927,0.818493770617329,0.8185614709957272,0.8053077474265598,0.7820743572210906,0.7842197194521454,0.8026613220064798,0.8064537756023522,0.803187312677587,0.8039501676964123,0.8006825367932753,0.8010573128120382,0.8071553783243883,0.8089173142047468,0.800677802556857,0.7916315288234717,0.7751120434696896,0.7558134357846484,0.7757898851793845,0.8126148352018137,0.8460822683162135,0.8674779562780288,0.8753242047479695,0.885581263924401,0.9023481809453204,0.9310453296932482,0.9734607890351883,0.9999999999999998,0.9598046505628091,0.8982087956814055,0.8329073537218394,0.7703417680054332,0.7030660417439198,0.6357766563262,0.573184495558408,0.5091052678012056,0.4904575062532503,0.5493817127085527,0.6157951344127888,0.6779768221411548,0.7431213671508707,0.8037763221311796,0.8458555964946057,0.8436111028936741,0.8161279220082334,0.7927313356298671,0.7563708529734843,0.7486698222340276,0.76237724933529,0.7722122673828136,0.7658451687493393,0.7374974193384187,0.7406562754457797,0.7628736662484761,0.7777017095886807,0.7830295950977402,0.7915597871341653,0.7863100425870226,0.7746306406244909,0.7715157044742189,0.7679032951220719,0.7600347071424496,0.7600625211439418,0.7935832010621315,0.8277290205779537,0.8597271655454393,0.8834528986313746,0.8878905304308926,0.8866867965312231,0.8959343812018266,0.9252766169267426,0.9618758250433177,0.9376152801338224,0.8767794887145075,0.8142166819122829,0.7469056150190714,0.6802611497238862,0.6181169204562214,0.5513601880035213,0.48367937910762965,0.4189890120492598,0.41294529599969537,0.47301824723202385,0.5359440529029655,0.6033077246650334,0.6678296288037697,0.7307721412323702,0.7888101204215636,0.8141696802330802,0.8094950719162879,0.7928493329124178,0.7677416722630814,MI
0.687086110746556,0.7283800041557353,0.770906840320028,0.7871370504820321,0.7481402564687438,0.736008339509528,0.7966314867425395,0.8634969218534879,0.8962884190900643,0.8566282894564364,0.8204540159092758,0.7936847477221279,0.7618117334033303,0.7315989065971891,0.721648267021278,0.7481694739228534,0.7636389936033704,0.7959660731755686,0.8406675857039531,0.8824808453829865,0.9028694592212608,0.8972216399436929,0.8832211655403227,0.8814071364361405,0.8966740842583744,0.8960269621448972,0.8959053034482064,0.9166875249733873,0.8942135309637113,0.8281334983040077,0.7613711595577104,0.6909110363832549,0.6206908524412537,0.5538574823768275,0.4832516742061528,0.41507702832521465,0.34666022363929105,0.27545326884175825,0.20683937890936036,0.13896266559500467,0.0770108885943531,0.08300820296059344,0.14673205164816003,0.2145980368184622,0.28580441702855797,0.35715543668626026,0.428506456343963,0.49985747600166497,0.5712084956593677,0.6425595153170703,0.7138174559335368,0.7820821305355888,0.8502565255135329,0.9048956857168241,0.885497335813339,0.8502200563970984,0.8310778191153386,0.8072024018543286,0.7909360312011413,0.8095391370410605,0.8510283656109862,0.8908724304351628,0.9098142277921729,0.9011894828434742,0.8887996157152375,0.8876127928397975,0.9000362569159087,0.8951817857316448,0.8993981123094218,0.9130828021605154,0.8759586530059443,0.8089215554049404,0.7419141750755529,0.6710589375937258,0.6025095495014229,0.5344617292548963,0.4632445151296418,0.39357700419184394,0.33219010210055944,0.267813120041292,0.1967570329940527,0.12792342328138953,0.060240408471516266,0.0,0.013672267175482672,0.07750013210518711,0.14838474547435163,0.21973500173154362,0.29108369799736755,0.36168587050510115,0.428486729979795,0.4988067648194967,0.5664683385673704,0.6296142406839105,0.700225728458083,0.7685610496461228,0.8366499751276345,0.8901478094164582,0.862816868572501,0.8139630785722946,0.785369139396085,0.7570440998725363,0.7269292069403431,0.7237037231156225,0.7592804512937702,0.8023972559294276,0.8385670738932872,0.8549348892535106,0.8527237517029344,0.8523315769821659,0.8674344637690014,0.8874879056939659,0.8847680331376574,0.885055008063023,0.9101217221440111,0.9050812048882754,0.8473890416297564,0.7789256784321505,0.7082502792681197,0.6414016225308208,0.5712270863080411,0.5003093251792724,0.43329279654515196,0.36346167408639796,0.29255139776954686,0.2255375928062597,0.15576632221244155,0.0880737134062575,0.05601250472291858,0.10772625188891491,0.17883958852752593,0.25012912832733725,0.3165124333405286,0.3753882115698036,0.44536674626847106,0.5167141852462903,0.5880650123378186,0.6591457168318149,0.7264964603365763,0.7958309678256833,0.8645874273707791,0.8980914166882302,0.8658118903238615,0.8386450661686183,0.8162595875088166,0.7866654282561445,0.772759107738741,0.8026105609826779,0.8127555887174938,0.7978393377227234,0.8219955396582818,0.849086765271838,0.8760766635223661,0.9216427971193671,0.977292956421366,0.9919690120211503,0.9350855821726213,0.8640171948312164,0.7930791518114364,0.7260310771696814,0.6562439211853398,0.5849068212446485,0.5151394783047608,0.4919869543735702,0.547976952453205,0.6181548597338438,0.6888503053637441,0.7556809962281337,0.8253320596316159,0.8916483547280502,0.9472034299668343,0.9459772519067614,0.9209152211783601,0.9026886780544273,0.9075467296459053,0.8964266438188743,0.8752578862411468,0.867205177802253,0.8712834859595445,0.8664919397138372,0.8418322075887924,0.8035186502388527,0.7593247106730034,0.744032987488444,0.771818073457704,0.8006669971635567,0.8293563713207607,0.8818437495326404,0.9412034287842211,0.9890125987134176,0.9625930941583326,0.8978896340271932,0.8295192569874158,0.7621663538236428,0.6910809709814195,0.6197301506739099,0.5484604574829779,0.49077259384985816,0.5193797087341847,0.5892893600038024,0.6564847596144077,0.7260222659596104,0.7953550028673324,0.862335256582116,0.9228271771475512,0.9502161262641057,0.932826348921436,0.9133127777136115,0.9183713172470881,0.9175211754723086,0.9045146564535277,0.9083879996109375,0.922670953034935,0.9275213338611538,0.910033090999591,0.8688199972879888,0.8264317643376912,0.8195562124979853,0.8433958823905868,0.8647720649873852,0.9001637772477594,0.9523249736072444,0.9999999999999999,0.9756246991137382,0.9103079514852174,0.8413516630253796,0.7739518800046173,0.7028535504849348,0.6316167020567652,0.5751025628648767,0.5972457178844575,0.6600740310443847,0.7289365191485695,0.7998468428217373,0.8667107258596166,0.9304158852442898,0.958740797303019,0.9376355334271659,0.9154916262929295,0.9179530588396468,0.9168775024132286,0.9011594012242129,0.9005038652026628,0.9151615843537039,0.9231293957333885,0.910809656689827,0.8764913788223553,0.8320604327791287,0.7915484750544358,0.7850480975461329,0.8085955917723857,0.8351140542066288,0.8716527891990683,0.9259512473927364,0.9812314342076623,MI
0.2837820300675944,0.35034998215551816,0.42064633138021723,0.48934971647889747,0.5605766496398946,0.617304349707895,0.6667462568080617,0.7002451637612558,0.6898223577652083,0.697334248407898,0.7647891014387597,0.8335324694711593,0.8978967068135632,0.9013073257426686,0.8564301755474061,0.8272583705805511,0.7920012017453725,0.7477246288281658,0.7236976825046983,0.736241096385856,0.7566162313002724,0.7760255195456186,0.7752821423516473,0.787392737438558,0.7918734191581536,0.7776082913712611,0.7727064360411785,0.7929845818656487,0.7909289081888738,0.7536033244247411,0.7013956267069944,0.6346923087951809,0.5655382776713632,0.4958497366419028,0.4237376862426201,0.3547399938393482,0.28477435598403333,0.21248761440486028,0.14017153009457242,0.07237906799823471,0.059896958203499356,0.118003389423772,0.1894000975327029,0.2579856002014188,0.32844343091314454,0.4007446279176584,0.4710517395521472,0.5311589578951454,0.6000504703272497,0.6712423413527061,0.7393702860649888,0.8103861944227565,0.8780803355769805,0.9243109434689453,0.8882066961878506,0.8475346382371017,0.8205502379534423,0.7819984608996463,0.7444647773200957,0.7343746452603597,0.737841303391943,0.7486524593244315,0.73862732916851,0.7422726805798402,0.7601184868805155,0.7560871362979639,0.7556583450954217,0.7750881233494307,0.7710795643875048,0.7312402808492986,0.6650782046334943,0.5957759276029053,0.5253319902408211,0.45681431814007833,0.3850471814769365,0.3165269465581564,0.24598007121330004,0.17403230431021346,0.10568816224767555,0.03617713769959652,0.0,0.04977400881094193,0.11443944201006898,0.17320496997775245,0.23800687922086097,0.30955494193864486,0.3815736079114588,0.4500250133202658,0.5206672456316357,0.5929013592521751,0.6624272593919496,0.7318380293295487,0.8035643270807328,0.871611873486298,0.9371593462879743,0.9517426895741304,0.8980456421305391,0.8555103492149535,0.8332726935850748,0.7955679817145778,0.7557085222443071,0.7482559929267018,0.7522772146568226,0.7556169534951236,0.7461104603122878,0.7549522971203744,0.755909317358851,0.761865510697543,0.7856136367022408,0.7804868226241619,0.7347693053134668,0.667374309221094,0.5972616158631394,0.5287915955322031,0.45825398683768015,0.3882039665587892,0.3192985955120323,0.2471442360974734,0.17595245929052902,0.10782317538763395,0.039325342685983644,0.022753204968209928,0.07952119983307784,0.14973373322258468,0.21779204377938435,0.2892763547879359,0.3616080810226574,0.4339433275744363,0.5062785741262139,0.5785453263865022,0.6482368683710861,0.7174872090286876,0.7893946543681509,0.8577252656209645,0.9195571368044774,0.9165425858209125,0.8696096001519454,0.8460378926041731,0.8134146933542733,0.7705681904185538,0.7427609412270703,0.7554832710284218,0.7827037260497186,0.8252848536466278,0.8582053251760865,0.882285972730472,0.933456615425659,0.9845619329728336,0.9714738595927691,0.9056059581196286,0.8374249169425151,0.7666960951072163,0.6981414075098136,0.6276566587100348,0.5561473410795266,0.49332871918590204,0.42800545465204354,0.35606835125575687,0.2845153548981235,0.24891717309821623,0.3034345982674419,0.3746747145075786,0.4427565982746975,0.5142975305174154,0.5837071444672814,0.6531078872631364,0.720325557359549,0.7761284845524863,0.8034363696844399,0.8038315743840404,0.7830311824172054,0.7742333805532595,0.7769142262476699,0.7661896077155891,0.7778942688314345,0.775194397527547,0.7685932758241606,0.7786083180099159,0.8176162461468258,0.8531741299987926,0.875804951241428,0.9246675429168846,0.9851055312419913,0.9964519723891764,0.9415753527735421,0.8805627350711714,0.8170650357129897,0.7450937173370236,0.6727585728386247,0.6004247875533792,0.5286769444166991,0.46055528399895973,0.38932150112779407,0.3184149305547157,0.2927748949349315,0.3504809315967209,0.41936744118576463,0.4914742348760933,0.5612170372132234,0.6303400592780748,0.6996266756006646,0.7616362813295389,0.7903793706289779,0.7983965417978264,0.7861809978355904,0.7739799415857709,0.785009366929583,0.7716574995533833,0.7576880774374283,0.7662000465194051,0.7613312388467268,0.7565998655926138,0.7624752217538044,0.7975867590241735,0.8361252387965866,0.864351427755624,0.9085046998697502,0.9685786271812383,1.0000000000000002,0.9560344093028793,0.889576056956859,0.8209352946070524,0.750036180564627,0.6818652299903201,0.6105544738499048,0.5470420360118593,0.4826372086545391,0.41080482961812215,0.3482455990916633,0.36725359545264313,0.43437631362574414,0.5041990524790296,0.5755304120110561,0.6436111753091422,0.715144435542486,0.7820879819400128,0.8147504976000078,0.815125881861399,0.7981339887634747,0.7953509829326273,0.8124587024235023,0.8087533756111308,0.7963244681079552,0.7968158367614019,0.7840911550243285,0.7604325690799784,0.7459947368647407,0.766503419024646,0.8094039278438049,0.8435732176736254,0.8755431850940855,0.9288846578362843,0.975911826461736,0.9514401271919851,0.8919056526918198,MI
0.4668143561593432,0.5172575592344364,0.5481901825289488,0.5407934068555744,0.5414709627400089,0.5240791833897998,0.5298768761624633,0.5322287968401187,0.5322329502487277,0.5322330801148709,0.5328791665634878,0.5451057854130341,0.5503119855419802,0.5416169955782588,0.49745961036558217,0.4668585721888139,0.45068327699879207,0.49073010643396886,0.5401983659586409,0.5738916585579168,0.5682492512927859,0.5703458976033446,0.5626611814163391,0.5751033038908493,0.5921394652066039,0.5347731713959463,0.44896237687056884,0.41860501703961095,0.4870169611920412,0.5805202306411692,0.6782455761510722,0.7765913435840273,0.8494282315093149,0.7945151234339791,0.6991557573840153,0.6055799039377567,0.5106806664911083,0.41565232557320675,0.33381340420731487,0.28456768470432836,0.25384402658449057,0.21460555848121166,0.17252563408623667,0.1357615781535073,0.09281628127735386,0.06043597440305959,0.02244772533750261,0.0,0.024275702831245027,0.07209722045894029,0.13516342872869336,0.206157980459039,0.2806127705113717,0.35991383895668383,0.42924835482569623,0.49603312003595246,0.5467456073808341,0.5667556981343025,0.5554778077212892,0.5620057089187984,0.5609459606806131,0.5543738679339123,0.5430963873332431,0.5325282004493785,0.5322612667354654,0.5363526532832692,0.5428771572790803,0.5474671327442655,0.5143327791012453,0.4758374537486767,0.44102060589365477,0.4553500818322549,0.5165361746511552,0.5513719538471342,0.5724615413845071,0.5862420715832295,0.5867226543787032,0.5891539178510725,0.5655393520598149,0.47542694826358645,0.3987849381754085,0.39020154765288373,0.46569626570384104,0.5649198378811899,0.6629581259129393,0.7610397032972416,0.8288912701074245,0.7655254995522411,0.6590952744190055,0.5652997791225305,0.47768307079213823,0.3918932639491777,0.32221933891944987,0.271562449279684,0.24082452677941424,0.21499291765275164,0.19548682754946745,0.16045149797353275,0.12427726337665312,0.08025255667542952,0.04516330949370406,0.04638904663469123,0.07964714289346286,0.1381922341154258,0.20704253460647148,0.28605944615444523,0.35887098180697885,0.4279817118196716,0.49226966106589964,0.5481723919192523,0.5783682460142483,0.5828534771230411,0.5693331372476105,0.5572472084204696,0.5496464204940539,0.5369023377475859,0.5322568130242105,0.5323755582190262,0.5408225118088983,0.5499731659957883,0.5342158928692466,0.48334271234735704,0.45162582961484876,0.43691877805157864,0.48425467044290027,0.5294635410423303,0.5581535957553188,0.5831693098020185,0.598635880230566,0.6282337513657845,0.6280106606052698,0.6018285399164802,0.5725178612747261,0.5315104215838589,0.5197477875034484,0.5583175070621085,0.5900607377097935,0.5939646769703071,0.5937325342588555,0.5842990083856745,0.5874987885205534,0.5940404848182821,0.6023240670386776,0.6136141254130023,0.6275565928442957,0.6332378408545223,0.6424557782714833,0.6133245785875028,0.5734221689512649,0.5169087675636415,0.45328640114987184,0.37597402010634307,0.29825600715612266,0.22875244474035483,0.16155176182995223,0.10744868325333634,0.09699110885461826,0.1340776467125404,0.17614224551064517,0.212865212398881,0.24834019695915632,0.27721122973208967,0.3031092304269216,0.344233729253804,0.4110940536141565,0.49594778738353407,0.5856277047456957,0.6772890733433714,0.7741273109773004,0.8707022006661935,0.9553832114549552,0.9747917974142633,0.9056886479326738,0.8178483705835791,0.7201065781560438,0.6344918894252753,0.6477758755479974,0.7089943806015135,0.6816487061534287,0.6494406848003682,0.6482057059673978,0.6381878512789814,0.6226764597876611,0.5968212908519179,0.5533329498660247,0.5166296734751041,0.536497555069531,0.5879884486035643,0.6112341671204957,0.6035789518335042,0.592482688631836,0.5853827469296609,0.5937000909367569,0.6006345429362332,0.611784205452576,0.6183432059125109,0.6211241167280797,0.6185464275145982,0.6204481002301434,0.6078826230222623,0.5766390223471327,0.5205273105670534,0.447064764701274,0.3730082639896142,0.30214138745338825,0.22934921905134376,0.15961360225325283,0.0945038060529173,0.07083112847268014,0.1013710392713203,0.1408055746492729,0.17415234490888754,0.21568786022103792,0.25567894469656505,0.29502335848559325,0.3271725063103754,0.3801516205672293,0.4598818720203286,0.5484039432000181,0.6427097585908461,0.7362167228831633,0.8416503051779429,0.9363360828840022,0.9999999999999996,0.9745698497658948,0.8975169368425973,0.8000676240778102,0.7058773230953808,0.6160197253743873,0.6462251171550175,0.7154231144122765,0.7094971254725619,0.6531137899112038,0.6314328379220449,0.6246854974441769,0.6283972479729152,0.617605225015954,0.5823526246934825,0.543528473866465,0.5319190071671462,0.5731906630438268,0.5951654958430823,0.6090422184725428,0.600232965835342,0.593878074615195,0.585927008212626,0.5871143340652094,0.5784590379009527,0.5840343552958425,0.5785996282013302,0.5852573222955444,0.5939848111324819,0.6023885464706371,0.5961001840354463,0.562850549777842,MI
0.4668143561593432,0.5172575592344364,0.5481901825289488,0.5407934068555744,0.5414709627400089,0.5240791833897998,0.5298768761624633,0.5322287968401187,0.5322329502487277,0.5322330801148709,0.5328791665634878,0.5451057854130341,0.5503119855419802,0.5416169955782588,0.49745961036558217,0.4668585721888139,0.45068327699879207,0.49073010643396886,0.5401983659586409,0.5738916585579168,0.5682492512927859,0.5703458976033446,0.5626611814163391,0.5751033038908493,0.5921394652066039,0.5347731713959463,0.44896237687056884,0.41860501703961095,0.4870169611920412,0.5805202306411692,0.6782455761510722,0.7765913435840273,0.8494282315093149,0.7945151234339791,0.6991557573840153,0.6055799039377567,0.5106806664911083,0.41565232557320675,0.33381340420731487,0.28456768470432836,0.25384402658449057,0.21460555848121166,0.17252563408623667,0.1357615781535073,0.09281628127735386,0.06043597440305959,0.02244772533750261,0.0,0.024275702831245027,0.07209722045894029,0.13516342872869336,0.206157980459039,0.2806127705113717,0.35991383895668383,0.42924835482569623,0.49603312003595246,0.5467456073808341,0.5667556981343025,0.5554778077212892,0.5620057089187984,0.5609459606806131,0.5543738679339123,0.5430963873332431,0.5325282004493785,0.5322612667354654,0.5363526532832692,0.5428771572790803,0.5474671327442655,0.5143327791012453,0.4758374537486767,0.44102060589365477,0.4553500818322549,0.5165361746511552,0.5513719538471342,0.5724615413845071,0.5862420715832295,0.5867226543787032,0.5891539178510725,0.5655393520598149,0.47542694826358645,0.3987849381754085,0.39020154765288373,0.46569626570384104,0.5649198378811899,0.6629581259129393,0.7610397032972416,0.8288912701074245,0.7655254995522411,0.6590952744190055,0.5652997791225305,0.47768307079213823,0.3918932639491777,0.32221933891944987,0.271562449279684,0.24082452677941424,0.21499291765275164,0.19548682754946745,0.16045149797353275,0.12427726337665312,0.08025255667542952,0.04516330949370406,0.04638904663469123,0.07964714289346286,0.1381922341154258,0.20704253460647148,0.28605944615444523,0.35887098180697885,0.4279817118196716,0.49226966106589964,0.5481723919192523,0.5783682460142483,0.5828534771230411,0.5693331372476105,0.5572472084204696,0.5496464204940539,0.5369023377475859,0.5322568130242105,0.5323755582190262,0.5408225118088983,0.5499731659957883,0.5342158928692466,0.48334271234735704,0.45162582961484876,0.43691877805157864,0.48425467044290027,0.5294635410423303,0.5581535957553188,0.5831693098020185,0.598635880230566,0.6282337513657845,0.6280106606052698,0.6018285399164802,0.5725178612747261,0.5315104215838589,0.5197477875034484,0.5583175070621085,0.5900607377097935,0.5939646769703071,0.5937325342588555,0.5842990083856745,0.5874987885205534,0.5940404848182821,0.6023240670386776,0.6136141254130023,0.6275565928442957,0.6332378408545223,0.6424557782714833,0.6133245785875028,0.5734221689512649,0.5169087675636415,0.45328640114987184,0.37597402010634307,0.29825600715612266,0.22875244474035483,0.16155176182995223,0.10744868325333634,0.09699110885461826,0.1340776467125404,0.17614224551064517,0.212865212398881,0.24834019695915632,0.27721122973208967,0.3031092304269216,0.344233729253804,0.4110940536141565,0.49594778738353407,0.5856277047456957,0.6772890733433714,0.7741273109773004,0.8707022006661935,0.9553832114549552,0.9747917974142633,0.9056886479326738,0.8178483705835791,0.7201065781560438,0.6344918894252753,0.6477758755479974,0.7089943806015135,0.6816487061534287,0.6494406848003682,0.6482057059673978,0.6381878512789814,0.6226764597876611,0.5968212908519179,0.5533329498660247,0.5166296734751041,0.536497555069531,0.5879884486035643,0.6112341671204957,0.6035789518335042,0.592482688631836,0.5853827469296609,0.5937000909367569,0.6006345429362332,0.611784205452576,0.6183432059125109,0.6211241167280797,0.6185464275145982,0.6204481002301434,0.6078826230222623,0.5766390223471327,0.5205273105670534,0.447064764701274,0.3730082639896142,0.30214138745338825,0.22934921905134376,0.15961360225325283,0.0945038060529173,0.07083112847268014,0.1013710392713203,0.1408055746492729,0.17415234490888754,0.21568786022103792,0.25567894469656505,0.29502335848559325,0.3271725063103754,0.3801516205672293,0.4598818720203286,0.5484039432000181,0.6427097585908461,0.7362167228831633,0.8416503051779429,0.9363360828840022,0.9999999999999996,0.9745698497658948,0.8975169368425973,0.8000676240778102,0.7058773230953808,0.6160197253743873,0.6462251171550175,0.7154231144122765,0.7094971254725619,0.6531137899112038,0.6314328379220449,0.6246854974441769,0.6283972479729152,0.617605225015954,0.5823526246934825,0.543528473866465,0.5319190071671462,0.5731906630438268,0.5951654958430823,0.6090422184725428,0.600232965835342,0.593878074615195,0.585927008212626,0.5871143340652094,0.5784590379009527,0.5840343552958425,0.5785996282013302,0.5852573222955444,0.5939848111324819,0.6023885464706371,0.5961001840354463,0.562850549777842,MI
0.7360978547613515,0.7655068989499441,0.7837955116735509,0.7844839884615422,0.7433982515483621,0.6868821415827502,0.6484450161262179,0.6263718772668159,0.6317314965076175,0.6292300555669381,0.5729326628948106,0.5057341203128523,0.4425831355704591,0.3776297135211218,0.30998740438906974,0.24366796740039748,0.1814432756278878,0.11444099428013427,0.04749013030182164,0.0,0.02601701158818298,0.08640347132767184,0.1532094528783779,0.22089268069788542,0.2881162791590693,0.3505760334090015,0.41644550991082546,0.48411899997580904,0.5518048055949485,0.6194906112140874,0.6871764107720608,0.7547031391875214,0.8181775428130482,0.8809955990862808,0.9048951805476939,0.8799095802303494,0.8668228508188838,0.8658793501083215,0.8661858392941044,0.846113217187723,0.8145763672574868,0.7802917285209587,0.7425608702171831,0.7219137182411934,0.7345223018627274,0.7416254207476964,0.7463008657590973,0.752742802707717,0.7617084769386286,0.76443900210443,0.7547860850554482,0.7400764152833721,0.7179810076965427,0.7059693232230797,0.7243050843132763,0.7494861605959435,0.7448385470746217,0.731744191815469,0.7206010851171958,0.740903848778024,0.7757567528934461,0.8008247240040343,0.8252561162779686,0.8019974609679479,0.7411614863388365,0.6768342555442102,0.6125761114474815,0.5488477436054813,0.48128929108577906,0.4140212587583186,0.3514679521108173,0.28573354364636666,0.21831462463077328,0.15873664204982713,0.10325850964843758,0.05238564440244303,0.07463295133155995,0.13928190346916097,0.20167808808954385,0.26765900340353105,0.3353340431117872,0.4030085415221705,0.4689728997847447,0.5313831495144561,0.5985604893856176,0.6662457016809671,0.733931507300106,0.801617312919245,0.869189975104425,0.9276882439742411,0.9272095430182501,0.8962466019770443,0.8741807012999776,0.8591580871404396,0.8509105805622919,0.8409715084420015,0.8103181105634176,0.7752877742725455,0.7401655435218699,0.7300804369836724,0.7509424998547114,0.7685714346922152,0.7786192429152756,0.7857965488382299,0.7842979035692115,0.7825049176937815,0.7811257260665851,0.7801514316151237,0.7824533728661849,0.781312659114384,0.7641783586106943,0.7534819883977246,0.7691508779433727,0.7913183123888738,0.7955464288121079,0.7723269454895503,0.7134273730030194,0.6514201692313237,0.585208325595622,0.521698370188088,0.45714511363447813,0.38951806346369316,0.3219898070785307,0.2584839836040856,0.19391986266498734,0.12630151449692179,0.060588757379917924,0.022729672633291897,0.060588757379917924,0.1262992051912974,0.19309001122440156,0.25526281004052725,0.321836128377797,0.38951806346369316,0.45709103816776414,0.5209600453680585,0.5851417314846861,0.652742954805239,0.7195324387064337,0.7746029266604575,0.8334647385853469,0.8894157260692097,0.8836757226654213,0.8615070916850482,0.8519883152185939,0.84764890492089,0.8420134739075129,0.8596125813226942,0.8686250081662243,0.8757133929377898,0.8890792338666462,0.9230520858706113,0.9615622867779308,0.9422014644938534,0.8840778097527393,0.8211576270221481,0.7637121311737052,0.7039249040254547,0.6379048878498905,0.586048839645479,0.6095781897996331,0.6743200022081484,0.7363860166195586,0.7939839796853927,0.818493770617329,0.8185614709957272,0.8053077474265598,0.7820743572210906,0.7842197194521454,0.8026613220064798,0.8064537756023522,0.803187312677587,0.8039501676964123,0.8006825367932753,0.8010573128120382,0.8071553783243883,0.8089173142047468,0.800677802556857,0.7916315288234717,0.7751120434696896,0.7558134357846484,0.7757898851793845,0.8126148352018137,0.8460822683162135,0.8674779562780288,0.8753242047479695,0.885581263924401,0.9023481809453204,0.9310453296932482,0.9734607890351883,0.9999999999999998,0.9598046505628091,0.8982087956814055,0.8329073537218394,0.7703417680054332,0.7030660417439198,0.6357766563262,0.573184495558408,0.5091052678012056,0.4904575062532503,0.5493817127085527,0.6157951344127888,0.6779768221411548,0.7431213671508707,0.8037763221311796,0.8458555964946057,0.8436111028936741,0.8161279220082334,0.7927313356298671,0.7563708529734843,0.7486698222340276,0.76237724933529,0.7722122673828136,0.7658451687493393,0.7374974193384187,0.7406562754457797,0.7628736662484761,0.7777017095886807,0.7830295950977402,0.7915597871341653,0.7863100425870226,0.7746306406244909,0.7715157044742189,0.7679032951220719,0.7600347071424496,0.7600625211439418,0.7935832010621315,0.8277290205779537,0.8597271655454393,0.8834528986313746,0.8878905304308926,0.8866867965312231,0.8959343812018266,0.9252766169267426,0.9618758250433177,0.9376152801338224,0.8767794887145075,0.8142166819122829,0.7469056150190714,0.6802611497238862,0.6181169204562214,0.5513601880035213,0.48367937910762965,0.4189890120492598,0.41294529599969537,0.47301824723202385,0.5359440529029655,0.6033077246650334,0.6678296288037697,0.7307721412323702,0.7888101204215636,0.8141696802330802,0.8094950719162879,0.7928493329124178,0.7677416722630814,MI
0.7383436797016673,0.7710080224951011,0.783801402098497,0.8013406380946101,0.8152503145312328,0.8296866361260266,0.8354994532621657,0.8409659382878812,0.8264651570041043,0.8257038822204305,0.8533241439348164,0.8724860899234951,0.8626537171716483,0.8009162510710425,0.717261320044908,0.6337411391004929,0.5539990097498865,0.46783953976094594,0.38271352296291206,0.30379586935663594,0.21841357923174598,0.13181559374800988,0.04669353226670425,0.0054085028144343905,0.0623252367534225,0.1412561178120738,0.22725666461734806,0.31363944702777247,0.39436477519324964,0.47674534576169425,0.5632532526399266,0.6469932603038527,0.7259942084438146,0.8044585431924697,0.8752264098947152,0.9102613343909508,0.9035516410275314,0.8742093899114162,0.8275969244218057,0.7774889483836421,0.7265536808628773,0.677936105258068,0.6616543089933148,0.695877360273437,0.7458425352707386,0.8007693019430288,0.8492303756858558,0.8641162663770633,0.86488042318353,0.8711171626326023,0.8801571008393146,0.8762885838931455,0.8689170764470288,0.8438084584804236,0.8436263973466477,0.8719895837226842,0.8962218700793073,0.8964524935251467,0.8396237018563347,0.7574396831762816,0.6778980618131564,0.5941306271232624,0.5078364936555942,0.4274862730289516,0.3446835380403003,0.2581660837014149,0.1748093987721443,0.09615210541090946,0.04801096439118757,0.09579044760864952,0.17420359480932468,0.26020468264759555,0.34314383730334896,0.4233750551115688,0.5096697854483175,0.596271658347954,0.6828673316612034,0.7677940222482523,0.8458914071572717,0.9143516195867666,0.9509935075063368,0.9646403304827543,0.9462435368707937,0.9037240871510909,0.8529617624349125,0.8023432425012743,0.7674767474402181,0.775758323178008,0.8243434047575223,0.8787661371107017,0.9311783527001561,0.9609403558450448,0.9614145078801019,0.950686104823076,0.9339874794310855,0.9299321859314199,0.9147089318706879,0.8927093359844732,0.8597338155091551,0.839687690264931,0.8538402435517819,0.8436823018268388,0.8273062885936188,0.7710717455156301,0.6922774231730756,0.606210532218331,0.5196089706514767,0.43300701845025047,0.34660869271145833,0.26580657175735756,0.18351572950485184,0.0980979306634483,0.02249773713328118,0.0,0.0670167168010889,0.14568757892134865,0.23092590374052657,0.3172522011052562,0.39765486046386334,0.4803702409377798,0.5640404958017547,0.642648732511602,0.7207016891074199,0.77914034654539,0.7764127050082782,0.7549918639723993,0.7131112687685651,0.6595105074583288,0.6063388758570142,0.556058028016685,0.5136050701211458,0.5090080860187151,0.5554450357855983,0.6128769543504885,0.6716975388424821,0.7316335691388068,0.7864745388931541,0.8206340654503844,0.8341596972987212,0.8565477268404004,0.8703754141739072,0.8632232800248806,0.8380508571597008,0.7930561015248533,0.7391901357967713,0.6808335719758566,0.6207737123356672,0.5604594952168692,0.5387754121757803,0.5786669876071312,0.6313924742107947,0.6845113668258288,0.7379178192448269,0.7806311649814491,0.8127860213246353,0.8252651861652175,0.823395936024275,0.7658427019393382,0.6882854387553435,0.609962207414014,0.5415721170845417,0.4656851743793614,0.4016782420632078,0.43823992360788655,0.5235370830555729,0.6044463841612683,0.6865464249034142,0.7687222169227251,0.8458359501425162,0.8879103976086148,0.8858806067757975,0.8942390255463101,0.8793137172757218,0.8909109936656961,0.9229012745183932,0.9504914151212264,0.9632184042466699,0.9689151649458584,0.9747308058739185,0.9914709403489056,1.0,0.9872051325560621,0.9411889379789281,0.8881812275809805,0.8373410610221833,0.8005261171508918,0.824646911804677,0.8735240393989426,0.9264222080793248,0.9685509618468683,0.9900262409263346,0.9896981280220268,0.9689062646180134,0.9232737240005057,0.8486395471011058,0.7694459528764707,0.6907170541898565,0.6060004541877729,0.5352475135250868,0.56564400592828,0.6497371393475583,0.7315161294305136,0.8124833781812634,0.8923760827029085,0.9643323065840251,0.9659222374350781,0.9344849171214175,0.9333020583819672,0.901087770227874,0.8742728930235911,0.8888942077111627,0.9080768164867895,0.9078865081316675,0.9059587283796317,0.8983695728341269,0.8912562030924093,0.8969710543768065,0.8855680431479925,0.8443545498552482,0.7904644680421621,0.7354388175596213,0.6943966328464412,0.7147813047986474,0.7691194415264916,0.819958106041269,0.8692458061384319,0.9097176787982709,0.935932314995871,0.939420735950874,0.9176970251734303,0.8621006711280524,0.7861216554485119,0.7051104686677506,0.6253340121566161,0.5504067288558668,0.4825666402001664,0.4896907702870089,0.571708921742769,0.6567150065267434,0.7356535039589752,0.8211239539584719,0.9054188227123211,0.9513242244429586,0.9202357513367713,0.8997777272053119,0.8815840623767514,0.8569250345174922,0.8652767502572535,0.8687681088264506,0.8659571183908638,0.8501210710193293,0.8368113175684789,0.8214465213145968,0.808473901623458,0.7902733906317144,MI
0.6670367692234811,0.6260051368503519,0.5689913318442887,0.5008060597064603,0.4277303671416266,0.3709508085090645,0.35092728194763256,0.3339223283364936,0.2909992940203987,0.25496181543298246,0.2217743333405735,0.2759847015662269,0.3710693378704477,0.4681034310286891,0.5659061010613893,0.6647161543363242,0.7469873156276521,0.7889970984824533,0.7730340328245278,0.7747035893257961,0.7848755214161669,0.7932745900219353,0.7880019237176124,0.738887316441142,0.7000043365937312,0.7340505306583485,0.7872642782864598,0.8240423304824029,0.8304186366625628,0.7731904746845497,0.6609092263173328,0.5433500721708338,0.41571612273223946,0.28985808623878184,0.17055979605747917,0.0623193150042769,0.06743197252579325,0.15443735407654846,0.2414494901289841,0.3369180131107081,0.4591598045163179,0.5828538355985746,0.7040922864293637,0.8205921993457406,0.835405078200939,0.7527744986807792,0.6913623725992715,0.6383357859350751,0.5921084734553286,0.5297461009372213,0.46508341816865717,0.38800693627765726,0.3010685662818531,0.2287501107913712,0.19620150867813968,0.2492431727856903,0.3363285453559304,0.43338719429396355,0.5409193834835311,0.6396022631710452,0.710682734590294,0.7343552812580716,0.7352917896052003,0.7421234423192835,0.7530119654163221,0.7537584017002554,0.7144800451919082,0.6729235283100741,0.7054787953403079,0.763613769842159,0.8094101925844044,0.8182332309259632,0.7689271201770624,0.65576016378606,0.5374475206396057,0.4086113225965391,0.2849895160778251,0.1636153501945754,0.04564926044686057,0.0,0.09197150318787162,0.2134923429441884,0.33617599728083225,0.4660461855820779,0.5875510542355935,0.710042638664311,0.8183343727881704,0.8109427670622809,0.7380142994988914,0.6860335222438978,0.6433640216506402,0.5919908180856377,0.5272627215173775,0.45827317190180383,0.3733560747485536,0.29116499734376755,0.2322624008626455,0.2442932178267634,0.3233319277756894,0.4196136261094361,0.521303170210438,0.6253238168779192,0.7124264986106088,0.7576354866129378,0.7587044975342232,0.7604888998165025,0.7678882234053617,0.7795317393477059,0.767453994160985,0.7179844361335397,0.6843754043586754,0.72309646507305,0.7737816202129195,0.8086730527691384,0.8230506429533417,0.7598244277135755,0.643608804914986,0.5263572679257262,0.41018971819669026,0.28787988073338,0.16906490018466713,0.04954624123105145,0.02294927318650819,0.12015751550963683,0.24435527038560978,0.36740392920515297,0.4896074130185408,0.6197533126577082,0.7493672310569501,0.8289387994057946,0.770666925899733,0.7078431560789877,0.6696574058216067,0.6201977058713883,0.5682717166559936,0.5196879091677806,0.5554409059110272,0.6218670503865231,0.6708378200667264,0.7165600694421548,0.7561305145768873,0.8305803645037002,0.9285684044598812,0.9915354097635631,0.9230617938117642,0.8050790479123793,0.6867047101176358,0.5593347488854208,0.4785586512533271,0.5578432320883502,0.6755570137519558,0.7899483035944443,0.8741413235057032,0.8761403761991284,0.8531204573853992,0.817531586465541,0.7710101855384341,0.7623366161583636,0.8118761309733598,0.8324177986534853,0.8233631980772531,0.815267296391829,0.8196005315521739,0.8168794667233004,0.7862192233720255,0.7193597520627255,0.6205675676968456,0.5219336983453886,0.4232325538924353,0.33050704455336377,0.30810645143568816,0.376499382142897,0.4588616757501731,0.536891308573477,0.6013919032469894,0.6609269906365876,0.7071176716058967,0.749487023361201,0.819097827904631,0.9150465971544854,0.9999999999999998,0.9667525093130054,0.8547968841642619,0.7358714275379732,0.6149836039671055,0.541621765326582,0.620922346812234,0.736614543043925,0.8439972571294454,0.8772801297597328,0.8718822242981881,0.8481788299653232,0.7960197125051678,0.7462338317467558,0.7722368452092037,0.8120227221335823,0.80673961565909,0.7965295033740596,0.7891536104125605,0.7881479832002622,0.7660055459909805,0.7020078948831083,0.6061854138871345,0.5090171361467986,0.40685596584272443,0.3137602038082574,0.2625364950516216,0.3126203130908405,0.3897027856311628,0.474506647423955,0.5435404634075296,0.6065548563009362,0.6636721540876354,0.7128833936008554,0.7674018026982046,0.8470046783805831,0.9490793955001993,0.9895699154309756,0.9060962650033015,0.7874139193177319,0.6634112618302093,0.5425955665213869,0.43026382498965465,0.4632004306694888,0.58026017966745,0.6975258525265609,0.8120295658225893,0.8877164601603831,0.8849828218834024,0.8698929940728879,0.8218371553971207,0.7727916422204795,0.78338648423008,0.8314067325016967,0.8480823811645306,0.84204582411524,0.8342024803581645,0.8325137889967598,0.8356911764496664,0.8107314457979238,0.7402338554463881,0.6556813691373649,0.5547008077786588,0.45598093602205103,0.3556579232769852,0.2784217906823969,0.3159779777136553,0.39679136522304526,0.47310488085474467,0.49000047717912554,0.5480342506905067,0.5790373883345292,0.6325156156312748,0.6850879514713968,0.7229664831748746,MI
0.07994957538123293,0.14585508103920242,0.2234466712462595,0.30395607454798435,0.3840128282560993,0.4478311463292075,0.519258665293461,0.5959380716646956,0.6717260759232986,0.748222497654115,0.8128103479072017,0.840927162901131,0.8368522756637338,0.8359935436863011,0.8343940314245379,0.8360597954461282,0.8275268318213993,0.8154304148297988,0.8409874546438776,0.8666292109526628,0.8397366014144112,0.7540448784182776,0.6588696511484042,0.5681899443783511,0.47253493234866606,0.3763242017987707,0.2857103754654198,0.18984980491216996,0.0964738035788475,0.021484449030241937,0.04559541240845,0.1348047863102121,0.2269582002405388,0.32397157438098345,0.41709751017956087,0.509584194584288,0.5973278206968984,0.6147067409799538,0.5704708875896896,0.5103549936601095,0.44053903557635765,0.36202047214695643,0.28438517086854387,0.20865832154276065,0.13561509987008635,0.07806536278355758,0.0947098457699409,0.16463767362898685,0.24690240070022695,0.3280869581685082,0.409852870499148,0.4935854782734115,0.5746479615389852,0.6568289188175056,0.7392876721461725,0.8074764936409662,0.8404772142332759,0.8343571315562326,0.8275096961829247,0.8270675559274465,0.8269234838212676,0.8183124442542948,0.8068479893451062,0.8301789097259689,0.8608656928383105,0.8773958888810478,0.8061633210225785,0.7134510930608324,0.6209536541453073,0.5278743617049548,0.43065022849385803,0.3333170700254031,0.23598917728904523,0.14002620882702999,0.05186856897343972,0.01684163103718861,0.08881835606596622,0.1807557058753193,0.2774075579186195,0.36175609215327564,0.4452952638328924,0.5370197000630716,0.6039059369594286,0.5943616189816061,0.5408603863804855,0.47378143017728336,0.4025837829928105,0.3266304345850326,0.24665801759082728,0.17214625099945358,0.10456793641320239,0.08648361335567434,0.14139719299377296,0.21661692423852674,0.3008567192962568,0.3860220605791327,0.4686466738457824,0.5509367163065464,0.6317305087707139,0.7103684515175055,0.7870096010758032,0.8368997572962726,0.8397336337221106,0.8363699604181385,0.8376534371097852,0.8455154791245685,0.8505859676592711,0.8294282431036937,0.8361810248806654,0.8635906957190025,0.8841143968996106,0.8297674535480075,0.7400959357296033,0.6458408466135008,0.5549997417038606,0.45837063467996164,0.361309882749165,0.2694372393619977,0.17555927857163023,0.07950156061596447,0.0,0.01468830409633004,0.10382963271158585,0.195137816191421,0.29196393841277213,0.3854184513500387,0.4775229763661599,0.5676294867440101,0.6101917433610486,0.5770001916962157,0.5186343116725955,0.4478012060334666,0.3744110754331058,0.29724867752246187,0.21805426663765504,0.13565750111070396,0.06363298211628199,0.01943244754060891,0.04551679253513774,0.09523830829459778,0.1682109914505825,0.2457440623852849,0.32895217309902436,0.4072102766207035,0.4792063416049035,0.5455490094624085,0.6026116567600206,0.6435062618195684,0.6554241526428233,0.5961710222603336,0.5164284567251802,0.5306275429770357,0.6215487581981873,0.7126021173017583,0.8055030486177779,0.8973887675534951,0.9830833145318085,1.0,0.9355936959318305,0.8892077626739687,0.865328379313312,0.8750923285753167,0.8749812569418471,0.8675777636449,0.8610258799438326,0.8617394893670247,0.8704622562643007,0.8630912032457745,0.8112802256793996,0.7391576517320886,0.6612023329021666,0.5807394053856638,0.4975858759787388,0.40888492923452247,0.3273888825189346,0.24609815404057356,0.17055361018865156,0.12670561968787375,0.17538782312167966,0.24988664407922023,0.32547516401454346,0.401488635278791,0.47791924070469616,0.544597757263821,0.6008292189744302,0.6404025566303215,0.6421557316128805,0.5827161138578425,0.5012411409372384,0.49957682415754223,0.5893987263004941,0.6815847214353448,0.7742923648093549,0.864960537368493,0.9557579084201531,0.982069702663813,0.9196517539261273,0.8709072530745601,0.844538029599404,0.8437567493668368,0.8491582275266838,0.8494656296939247,0.856070880024989,0.8612382298810954,0.8648795539253065,0.8618255830278732,0.8191063766777409,0.7453837004846031,0.6723934858332381,0.6018900977690922,0.5218239404117666,0.43919295752127496,0.35466459907916614,0.26837780256935306,0.18861859436638317,0.12643946702653241,0.15108750328686904,0.22779582687108157,0.30399687516284946,0.3808039661482252,0.45439671108460833,0.527323776474466,0.5876977406593487,0.6339264730003904,0.6538645465664763,0.6063360196605145,0.5213846939603588,0.45705528058705447,0.509724200192788,0.6057441606143552,0.6969346755390164,0.7901837054311818,0.880522524335581,0.9672197926548145,0.9884351734817705,0.9240391015062146,0.8796848214279074,0.8531354325317801,0.8584363265635113,0.8673980992840797,0.8640975392159891,0.8594386946333044,0.859508391046989,0.8661144661879789,0.8592091567060465,0.8114233779061766,0.7395886952577413,0.6570090262638288,0.5798552737116471,0.5206045604213552,0.44287107170561435,0.3601635817160287,0.2788217810008098,0.19551804369630954,0.1235520925726884,MI
0.014869376607968832,0.05186785389018822,0.044340600601961544,0.022866721090561093,0.05260082172894287,0.1003385460274071,0.1701611435844299,0.25232593807890114,0.3245874516110243,0.3916363840396184,0.4399811478525315,0.42832834924825347,0.40233577412644816,0.3954088898813719,0.40334836001698715,0.397522969923088,0.3502105811521825,0.33256320743110246,0.372620939354416,0.4063623336107538,0.3593177549209967,0.3079880271271289,0.3611685736715291,0.4554264016624425,0.5512302730915581,0.6413133981880068,0.7310389959772534,0.7332445591242771,0.6409766145793374,0.543381279042376,0.44697538143014715,0.3469840049603756,0.24954419019076135,0.16407755011140557,0.10137839995932052,0.06361598168887395,0.028972093474869176,0.0,0.009876861012184213,0.06460074641348168,0.13026610598583166,0.20169689753859998,0.27855561513959604,0.3481498224170019,0.39167295526939805,0.38504746064469586,0.37424214292287505,0.3888580140138278,0.41188787974260643,0.42805431463686316,0.3975630216960848,0.37588434874012755,0.4122475808094834,0.4646165284589361,0.4655751200600986,0.4037014223696942,0.41329377130801914,0.4997946304125813,0.6030034189951978,0.6986861907198101,0.7292560461117974,0.6510011514967817,0.5556695944588168,0.4570539008272325,0.36280865101799487,0.2706282983898056,0.1886846843763199,0.1276703290509249,0.08607448260919348,0.03885558488694496,0.009432421918075695,0.02297912629089316,0.07569480790078575,0.14461768846200962,0.21501720049193218,0.2844833563080158,0.35011194126870926,0.39426225120158387,0.3768823690027503,0.3511284359410971,0.34866821605261755,0.36091131199645865,0.34953317586378896,0.3148800194600363,0.32128702161808453,0.37689614965285845,0.4073914891691728,0.3638049913847361,0.31858643999339264,0.37366297266858384,0.4690152408261272,0.5635979209025548,0.6405249722681572,0.6036318227418538,0.5078116683022289,0.41321558106887046,0.3187260678808519,0.2270689694175947,0.14705063754024073,0.09294912070966821,0.05764440383913505,0.02348623763908897,0.00953172808752889,0.04261288421220555,0.10358786124999564,0.17466255822927046,0.2535897703968686,0.3293795624006042,0.4030531267801698,0.46478159209449865,0.4969624327012756,0.49306753392705627,0.5112397010597194,0.5429476688463453,0.5680729612814734,0.5502298386169144,0.5144753487580696,0.5326176991731404,0.5875539622711434,0.594524569776143,0.5356225325890009,0.5460945895637694,0.6216722791949714,0.6492440648311386,0.6205335325522738,0.5745055432294888,0.5888768014935284,0.6136439447687816,0.5964026030092429,0.5660466316887649,0.5374928847287483,0.5324301552501196,0.5316302209319854,0.48473535119742817,0.42217264372080754,0.34655486255234846,0.26686018489471075,0.19332800199883193,0.12267860026144928,0.06333602294807306,0.05745436060595721,0.0908130161444396,0.12764884153968414,0.18841714826433242,0.2735297367232623,0.364950294651603,0.4602593840970295,0.5562684643907287,0.6542242269576031,0.7516184202493315,0.8468225025817162,0.9398299041614964,0.995910296108915,0.9388615489521257,0.8413941054002407,0.7421251716356223,0.6517731517123759,0.5603282429135947,0.47183646505900345,0.4514722789095722,0.43315662634119656,0.38370898313041524,0.3604604401245215,0.3872165873280897,0.3936524873478877,0.38801881275910954,0.38675892142477775,0.4158451245720167,0.4397915928120506,0.41435571058608334,0.35872956373783316,0.2939112596328035,0.2185585168269939,0.14642875226887941,0.08417874867923247,0.05253975870692229,0.07837967682722469,0.12643372497175887,0.17002851919813478,0.23966413216578597,0.33384750701915245,0.4291858344584445,0.5242138782812629,0.6193768019478578,0.7171453164402393,0.812343678785262,0.907183689237697,0.993168684696061,1.0,0.9104177956588377,0.8083819809911312,0.7190363925508518,0.6272831566011905,0.539213265192986,0.5222284708307887,0.511115139319219,0.46935253405171107,0.42591259027933903,0.4495722628544394,0.47083980843246076,0.4622091011383418,0.438490048576361,0.4152273599092675,0.4247637048729511,0.4388382832290434,0.40627146751263465,0.3416527416881934,0.27204405034763135,0.19732459701809213,0.12768886929034018,0.06140691933465603,0.04265216137996797,0.07252882816611828,0.1085081793393885,0.15643353147541816,0.2349167706097095,0.3243179065937034,0.4185240843633391,0.5161925195677108,0.6138147972108379,0.7102042817059102,0.8103869855214714,0.9116660867411275,0.9899657984476047,0.9715005529033518,0.8801575015939602,0.7942633277996869,0.7057992951513756,0.6171281967197091,0.5253197372471541,0.4446524475484597,0.4501845904819879,0.4449822461401247,0.3986668396104185,0.385969889940716,0.4286367849700241,0.4409967455290631,0.4332559718193054,0.4473774223158622,0.475390416357357,0.48624298921554576,0.44368043851529393,0.3844928438387196,0.315852013103902,0.2538792678118611,0.2351277767179616,0.2098770039701905,0.1439963757395144,0.09288741606843143,0.09291427796843887,0.1135411407397009,0.1684777776153894,0.21204909896803148,0.2102146343298057,0.15890829449222688,MI
0.645534184021507,0.7120152436312304,0.770177332062842,0.7923973577959478,0.8371063126126272,0.8436908746637122,0.7392224899682116,0.6418573692725094,0.557020230000377,0.48109166314639884,0.44629887861111506,0.4116302904665381,0.4594201274186389,0.4127708406002095,0.3310848902747754,0.2679081528743872,0.227179832406744,0.19522307098869618,0.13973574334547934,0.09107730606329323,0.08655360105491017,0.13952986925478594,0.221141892216961,0.30713174551062394,0.4024191069366694,0.5039847218307743,0.5873236643245989,0.6437590379822544,0.6669516693033049,0.6687177143179053,0.6656889642816837,0.6589498869973478,0.6588206110261723,0.6588206110261723,0.6587522798698817,0.6499168520849001,0.6155726588190702,0.590394955784233,0.5593036088122019,0.5890175782267089,0.6548627617853664,0.6990163513815122,0.71620897273792,0.7390591032191489,0.6558297777037003,0.5659931893058356,0.47418253652499276,0.4100984413100761,0.33073710395491807,0.3065642418036294,0.3623550111824918,0.31624706369385747,0.23455971405335774,0.17243463102148082,0.1234598732850598,0.08130416112826389,0.035864231727645635,0.0,0.011642958375774448,0.07261038344117132,0.15248834387795318,0.24163486146979452,0.3286490653034182,0.42316574711575683,0.5152661391037148,0.5767164285302702,0.589899563420496,0.5851297179050388,0.5936597105764378,0.5925034277506467,0.5771151467339934,0.5850606721442149,0.5975122574948775,0.5948738371790183,0.5553782701240157,0.524500666995201,0.4972664083424778,0.5263226401516299,0.5961600665128053,0.66716353157218,0.7221013965812939,0.765942022734063,0.7956446287202517,0.7125097404441978,0.6071081236367095,0.5202969895144345,0.4516683407549822,0.40675605487094213,0.4052908317523918,0.43803141097529474,0.36018636055403963,0.2871800500441539,0.24685396558929318,0.21010517157998887,0.18889557787484845,0.16389009403416033,0.17163536373309274,0.2279176329839694,0.3136549485610738,0.40021166089579996,0.4962951141750005,0.5857442190221875,0.6753688932828932,0.7549313336102714,0.8017621393931575,0.7899245398488945,0.7635582084096395,0.7355337424393356,0.7022278228080374,0.6811483148739983,0.6640890069851006,0.6514748686766838,0.6347401549435587,0.6065789806438522,0.5901554946611767,0.5618693852138055,0.5938044511242193,0.6679097503504612,0.7237092153406248,0.750019857033315,0.761515308175222,0.6832439894759044,0.5912415050866917,0.5021090480170627,0.43167719391459203,0.459950427153875,0.5286843612035828,0.608671944305264,0.6992272845907563,0.8102888211249382,0.9164299741161872,0.9507833964555572,0.8729712393257607,0.8188965866833544,0.7937684965266203,0.7469165860599443,0.6760815381200072,0.6477914862801111,0.6694015344670765,0.7054969778506952,0.7194125459213403,0.7356023425569793,0.753230739173814,0.7728241747919409,0.8082612748333027,0.8340976079389013,0.8578692618421786,0.8733576335226272,0.8654223527548384,0.8043379983976067,0.7355003400353315,0.6424020986099053,0.5550829972165809,0.4556871194130183,0.3626807221353521,0.285769590768989,0.25210907567394614,0.26209476368708806,0.2986048951904161,0.3285690696097099,0.38224590969881556,0.46752819399678325,0.5496572137837314,0.5607903691070475,0.5495233287833985,0.585075278336324,0.6013798450550976,0.6913823140578965,0.8014183739804897,0.9112959802274694,0.9905533565980851,0.952527293689041,0.8663284652026157,0.8079813023710534,0.7687897894044977,0.6991641445244836,0.624265372048503,0.5835442708744849,0.6106937451929864,0.638346748221569,0.6595580382059989,0.6674066427721663,0.6636132318885455,0.6561817058469384,0.6671115633542315,0.6674846437539541,0.6679596395511243,0.6778917991456099,0.665110170898108,0.6139667080731668,0.5292876644582045,0.4459649926298268,0.3529506809394829,0.26642143636419835,0.17400939600296406,0.09960794148316898,0.09946395080520576,0.13706727086929948,0.17795245535609494,0.22414049824337923,0.283992088091654,0.36601737096107767,0.45733491900794787,0.4946297444324741,0.47909215724389664,0.5171331087387916,0.584828024570617,0.6738948785811449,0.7818669435967931,0.8943231038935422,0.957382266731146,0.8978721017395457,0.807339380072003,0.7758046383288253,0.7452656111949234,0.6832160782772947,0.6524629830955329,0.675645033547176,0.7032155591213609,0.7289207767878172,0.7324559135018833,0.7324648892123227,0.7326907731298249,0.7436229997558481,0.7539308059004242,0.7499726980002204,0.7262645176824489,0.6856979687539306,0.6079481667016706,0.5143592605983627,0.426958155584769,0.335703472234528,0.2463379108503676,0.17115557614660792,0.17341655396916833,0.22135201681574124,0.2733094565287475,0.30999594627311833,0.35722950632077843,0.4340750750117168,0.5195504888300957,0.5967215952935927,0.5859959029265047,0.546141007030641,0.5971797232119309,0.6605509479987197,0.760109897660771,0.8729868380124284,0.9741439505711229,1.0,0.9233807547305064,0.8748564788748814,0.8666179862424932,0.8119173325520186,0.7424658206969696,MI
0.2088422267563399,0.2524602267770739,0.2692346494577236,0.2242691433226458,0.22491479144955262,0.27831960645772935,0.3321436555319075,0.38882726576577475,0.4546937132156419,0.5183395021943757,0.5443847803710209,0.5458359105704469,0.5415500537919096,0.5120173602424711,0.5273909681509779,0.570588482044909,0.6035027053597626,0.6531646375268738,0.7269940283338137,0.8011019899653147,0.8436065361805767,0.7797447291811932,0.692722836754754,0.604912483056308,0.5188335417258976,0.44244113245441175,0.3770248943695975,0.3215288207532645,0.275792672727986,0.23483138413992433,0.1960682319756164,0.19239575202549686,0.23627085484156618,0.29463253070212914,0.36243992948486614,0.4086425271626162,0.42672897698204615,0.43025288942120454,0.42225895642410083,0.4624632475635153,0.5064761254424488,0.533552442422017,0.5920817740685098,0.6678577891633741,0.7443894853986257,0.8279961264627467,0.827843956909494,0.7412943841191142,0.6642728092544141,0.5886974530756688,0.5104375738107656,0.44477239373001587,0.3951718034394056,0.37670475543083537,0.3856130640926019,0.3879854598967494,0.4261812385489927,0.4854641018628467,0.556451470248919,0.6256902219703679,0.6789516205493713,0.6997141883274085,0.721368617514079,0.7105989834446897,0.6657769713237969,0.6334971165210221,0.5891756318381822,0.5426368654898164,0.5629208062251028,0.6325242237529791,0.6579601760136804,0.5828531654956495,0.49664995023409997,0.41073033096754985,0.3253509807562929,0.24567534492203613,0.17746476325997484,0.11277397267358902,0.0640066302992095,0.027431456917449637,0.0,0.017885516777642607,0.0656081622104594,0.13664667042992917,0.20444307238907133,0.26759071712985305,0.3139902096864282,0.3349457545871166,0.3562022634662083,0.3753831198127391,0.4274599016132745,0.46952042814427286,0.4999783300487819,0.5578584115075593,0.6448956177297778,0.7193361371091394,0.7478016691251859,0.6802753902703389,0.5924729545102345,0.5051133747841063,0.42321078439283943,0.3491392072653836,0.2927693061554941,0.25631124174793984,0.2524919520383393,0.2701129609018411,0.3094749058870403,0.3713381632655026,0.4366684511979948,0.5009981473349978,0.5680711481205631,0.5969889878766024,0.5704186579578736,0.531474541333973,0.5095060124115967,0.5350675335334352,0.581179633757835,0.6008099211685327,0.6450836615317801,0.7203436568234287,0.7942601692660434,0.8493314744805391,0.7974289206030973,0.7093063088950604,0.625934465843295,0.6041451285027506,0.6816698666293184,0.7698044385081868,0.8640518603451119,0.9453725687784615,0.9504186003182942,0.8900631820865312,0.8129615902704579,0.7324049959890111,0.6630600840158927,0.6373366382243943,0.6083917818759912,0.5656860472157796,0.5752208528434437,0.6138632522719265,0.6432730275800447,0.6354279890534498,0.5870139484451338,0.5199603009744489,0.45276118989647807,0.38522667966418456,0.334715543108941,0.30797180086752696,0.31263507476520536,0.32532894025894765,0.37716537029011965,0.4494770213703956,0.5402487296428822,0.6290247543007306,0.7165178480648466,0.801415323233388,0.8543542355555287,0.8147394481880799,0.7426224961268733,0.664876598334694,0.5853493928001869,0.5399090323290077,0.5180181139021303,0.47287503464212,0.4272134843287534,0.4004540364185667,0.3772807643126239,0.3554733566587791,0.3104412613516172,0.24514176941132115,0.17440972608399163,0.10648081864717085,0.06082892049927935,0.05798276514167666,0.09257147955731404,0.1450385627034836,0.20030035323932838,0.2690450271789193,0.35060348091927485,0.43535865755204695,0.521727007624079,0.611339579178384,0.6992853986608809,0.7756858224359138,0.7727648992632785,0.697852380989201,0.6262915226718824,0.600439132817578,0.6431263139640258,0.689377190922086,0.7203691390969287,0.7630905255998428,0.7692394826801263,0.7514219333635532,0.723577628837969,0.6740283313447499,0.6029236893493835,0.5343710496045444,0.47266180212655384,0.43611997305788686,0.4340479514241842,0.4280702385962507,0.4667616227673188,0.5412415625217044,0.6206598591996886,0.710238869081302,0.7975925854266821,0.8877135810938315,0.9645188680585006,0.9653393444102218,0.890920411053354,0.8113548878592298,0.7330188222916925,0.6577735238214866,0.5873119046522501,0.5556652752239344,0.5131142150637678,0.46836893780199906,0.4744887570749525,0.4746778409964303,0.4610826059148436,0.4284533516167084,0.3668714145693297,0.30321517476120907,0.2505052101565206,0.2507920385562066,0.29380270114247997,0.33444996026566187,0.3845077365829923,0.4474701257037583,0.5220105077222674,0.6083988187641718,0.6951686464466309,0.7835353736193387,0.8706192310014167,0.954374887884204,1.0,0.9457727796606483,0.8683259359461695,0.794865285385558,0.7184026686288414,0.6552316655404078,0.6194516284189475,0.5789699829372972,0.5726971935322107,0.5930475462447187,0.5939651474939598,0.5791953149192417,0.5337613176656253,0.4714628061538222,0.40911493448274006,0.3541473709775744,0.36474940522201504,0.3836967686851802,0.3523128063739185,MI
