0,1,2,3,4,5,6,7,8,9,10,11,12,13,14,15,16,17,18,19,20,21,22,23,24,25,26,27,28,29,30,31,32,33,34,35,36,37,38,39,40,41,42,43,44,45,46,47,48,49,50,51,52,53,54,55,56,57,58,59,60,61,62,63,64,65,66,67,68,69,70,71,72,73,74,75,76,77,78,79,80,81,82,83,84,85,86,87,88,89,90,91,92,93,94,95,96,97,98,99,100,101,102,103,104,105,106,107,108,109,110,111,112,113,114,115,116,117,118,119,120,121,122,123,124,125,126,127,128,129,130,131,132,133,134,135,136,137,138,139,140,141,142,143,144,145,146,147,148,149,150,151,152,153,154,155,156,157,158,159,160,161,162,163,164,165,166,167,168,169,170,171,172,173,174,175,176,177,178,179,180,181,182,183,184,185,186,187,188,189,190,191,192,193,194,195,196,197,198,199,200,201,202,203,204,205,206,207,208,209,210,211,212,213,214,215,216,217,218,219,220,221,222,223,224,225,226,227,228,229,230,231,232,233,234,235,236,237,238,239,240,241,242,243,244,245,246,247,248,249,250,251,252,253,254,Target
0.23321959934883085,0.24413897737547363,0.28448965212989696,0.3232972344137608,0.36414100108896275,0.4042109682571897,0.41941321379858265,0.45591219913323244,0.469540580082924,0.46286687454919107,0.4585012817708314,0.45909053214147666,0.4597122677751002,0.46527865701711435,0.4915992173162642,0.494172581226499,0.4804346046565271,0.4660812790188664,0.452332235680718,0.44076990928134685,0.40123050296394225,0.3500389537227291,0.3033782838832262,0.248161920708605,0.20124850192734867,0.14613130530538898,0.09058527658035676,0.04410495164491879,0.0007345729055203698,0.0,0.043253180694523774,0.09153255667600324,0.1444554406072016,0.20160819059098567,0.25097230397995074,0.30301828604091474,0.35883858245902167,0.4055768183977657,0.46154861813867876,0.5189102967730708,0.5762727854378518,0.6336352741026332,0.6909914173843708,0.7456338909656794,0.7927865921006705,0.8493957430417558,0.899144376736561,0.9507807314151913,0.9999999999999998,0.9833960357940519,0.9346823481962987,0.888723658740701,0.842537720041453,0.7917025153293495,0.7436041512611433,0.701595630898858,0.6726867852790439,0.6725042822611924,0.6887058721209585,0.7145044802207148,0.7433166517779315,0.7730113440370909,0.7961925114300243,0.8116953712076069,0.7928017211899017,0.7716486349799008,0.746362172418612,0.7160703522538328,0.6847685943675004,0.6528360618071194,0.6206755303568883,0.5895296164314046,0.5552585093402798,0.5206968052815897,0.4863405996351593,0.4613881644518336,0.44794431134773904,0.434460907773335,0.41145584586027506,0.38616372007724986,0.3716642920765525,0.36812117986857795,0.3750890081704512,0.39592297556792766,0.41094932188619526,0.4302811122793153,0.4392414460561087,0.45585853418105393,0.4559928264898956,0.4493232051037619,0.45070487357565603,0.4682793506794878,0.47644121556746977,0.48485392521373893,0.4889935042197828,0.47856466557678456,0.4727994902109496,0.4608212674316883,0.431617793668021,0.38294590893381764,0.3356967109460043,0.27956367834060813,0.2323154789727817,0.17780683901029004,0.12179931360605911,0.07572880489506506,0.045999297358057856,0.06714898475589925,0.11562832475839135,0.16395950415073535,0.2210067672372107,0.2769598530931179,0.32367273386285,0.37956446689731416,0.4369259813363573,0.4942884700011383,0.5514967271265967,0.6012919693433212,0.652890940326692,0.7098291306345124,0.7577677308889104,0.8114136032325343,0.8685016962074965,0.9169559752441307,0.9605214842687968,0.9897664963616222,0.9681763014484577,0.9226486837936905,0.8708071821568588,0.8240290223061997,0.7773363117245606,0.7343055162731085,0.6931490641966509,0.6682668120923141,0.6745673801923278,0.6963290155659545,0.7194269756501208,0.750561332448269,0.7781472556003839,0.8142159286656268,0.8369932630353223,0.8316430174703033,0.8084374171392763,0.7798959498896052,0.7528144666318652,0.7290942338614841,0.698270127748448,0.6639760724981547,0.6294143684394646,0.5946727380495409,0.5563888425302868,0.5250844707765856,0.5070982272516231,0.48235747889117575,0.4686126764984413,0.4374398091154992,0.4175169028458561,0.39547897196982595,0.3823889977856656,0.3864000569241226,0.40036907384621556,0.41179654858849335,0.4256598204358999,0.43539121492556654,0.4413243893276271,0.4614167581512716,0.47031670953203464,0.4707351570829166,0.4828418286715024,0.4773375680708629,0.47524029862444617,0.4647052520258945,0.458666708201638,0.43634334625387416,0.3936203679660777,0.34041113608150986,0.29280420459863654,0.23662089166668432,0.18960414368755174,0.1348566942938414,0.08483431639597439,0.06509725617965834,0.09348642669829776,0.14547473927617816,0.19286225676302138,0.2472799680874762,0.3042371205712491,0.3521283911768247,0.40563338482401545,0.45475211346758937,0.5070354518384035,0.560601816115067,0.6086062343394383,0.6655725965370329,0.7199683659987095,0.7673066528322263,0.8241310625679004,0.8790607760192335,0.9260197602168045,0.9793061550035482,0.9779231595043594,0.9310645577212766,0.8845377560588947,0.8286310377120889,0.7800014331586798,0.7309650697361401,0.6929423306664189,0.6727439823931494,0.679599672981728,0.6971093736114449,0.7236320918337344,0.7545066955257804,0.7876223155013944,0.8118490256084756,0.8248931351434308,0.8071238217278152,0.7770199043303039,0.7530886467362115,0.7209643126502756,0.6966444659959106,0.6687521228848421,0.6359332059408904,0.5990029738506426,0.5640516388839394,0.5277479411472747,0.498420957333223,0.47760821253832364,0.4658657066842824,0.45746367076981653,0.43748283929130616,0.41915696832103433,0.40904922423585455,0.40995430833308144,0.42122306137696985,0.4348255223483968,0.4483361789784308,0.44932003692990796,0.45781957419946484,0.48457295949327484,0.5026138498365806,0.5124245190592169,0.5158354984909865,0.5053426810945678,0.503240735054596,0.49669975619291873,0.495091379985775,0.4583833434185858,0.402316283639528,0.354913439276086,0.300646770647901,0.24915220818435735,0.1992637489237925,0.14205028483538906,0.08735536300375801,0.059334348256864455,MI
0.482994607686583,0.4513611526516135,0.4150029849991017,0.3786400535410439,0.3422403142204349,0.2991048324555843,0.2586956490989678,0.2223011523616787,0.18974865654501993,0.1549560531912002,0.11872204466799241,0.08359452853776661,0.061984511995390346,0.038732840453194584,0.04299599666311815,0.05545320695829581,0.07344353130703984,0.0917225861422839,0.11000164097752752,0.1293591034576531,0.1517929174591326,0.16990496901759888,0.18807500798261367,0.21154101128019365,0.22477678131024836,0.24830423757658515,0.27650088322959876,0.312976675160364,0.3468595731754984,0.3882622713780721,0.4308078869569161,0.4801170371066035,0.5257362392808469,0.5722287319020123,0.6249620140277097,0.6656763868176143,0.718595707515759,0.7640132182196138,0.8107167613523991,0.8633264325074879,0.9041057669126862,0.9537920693357811,0.9849302443250569,1.0,0.979960705362874,0.979380183572427,0.9769086782247736,0.9377854969618657,0.8966252068032126,0.8560253865361926,0.8117106017002982,0.7663098073201349,0.7278277761689496,0.6994378295177817,0.6941533610502946,0.6838589723394297,0.6942432952928077,0.6886984339647153,0.683766512593154,0.6948568998092668,0.6948820669174927,0.6878407891592153,0.6943196928520439,0.6812948988429466,0.660170261156519,0.6345060193169179,0.6272060780262922,0.6321093487613689,0.6556099936668054,0.6734397447013434,0.6730261088453551,0.6614155311199417,0.6611478093218808,0.6611478093218808,0.6611478093218808,0.6611478093218808,0.6611478093218808,0.6605578543040385,0.6477115776490079,0.6517695424069565,0.6593205164705482,0.6454853041861224,0.6441595713369601,0.6441445305948039,0.6394690454313228,0.6275276472767404,0.6271329076629746,0.6194524054888317,0.6102651829052737,0.6101830953671192,0.6101816940482521,0.6078925371325883,0.5853449458123468,0.5612073210665787,0.5392620647841304,0.507998323432008,0.48193353999168576,0.4465721750189515,0.4089454112134421,0.36263483890038595,0.32582921364256734,0.28953395010249716,0.25331740230376054,0.2171008545050248,0.18088555194605682,0.14636855433046714,0.11835681644154539,0.08301296117168233,0.048168483221125324,0.025642533399088396,0.0,0.0003584765043358473,0.02090351889237363,0.03310611552667986,0.0474197331634052,0.06904583800505648,0.08508585170724947,0.10170494889440551,0.11986847452965232,0.14418261530254473,0.16764866052558736,0.18985503757012046,0.21227087562262037,0.24728249674894398,0.283644854785964,0.3200281638609588,0.35857403957083767,0.40856011364832945,0.4498435819790143,0.502393439673142,0.5428786163666399,0.5953797706810309,0.6422248458509423,0.687559966477151,0.7408563126572436,0.7813108873180692,0.8338763749222675,0.8802502133243353,0.9110302782523831,0.9456301178646727,0.9723332294524925,0.9794641706206546,0.9523167153513907,0.9329212793297703,0.9131088314694957,0.8744492413235743,0.8341539993802964,0.792909513512098,0.7468928475764183,0.7065104021277153,0.6657180476376912,0.6639716785390557,0.6771997610458094,0.6781358810486307,0.678156834605824,0.6845753702733393,0.6935837165879595,0.6801735251174668,0.6760711147839125,0.6614463034841003,0.6464807813138411,0.6281589537498484,0.6010043468276178,0.5977589129897156,0.6173597143209673,0.6493297702475278,0.6609659164774628,0.6611478093218808,0.6611478093218808,0.6611478093218808,0.6611478093218808,0.6611466930170198,0.6592417955800687,0.6452130667799949,0.6441595713369601,0.6441595713369601,0.6441595713369601,0.6441243813009261,0.6369346716485946,0.6272641241065502,0.6271713333520399,0.6271713333520399,0.6271713333520399,0.6271713333520399,0.6271713333520399,0.6271487917778567,0.6215531681003359,0.6037845145123,0.584906630123962,0.5584827067507585,0.5312343685043066,0.5024778732512281,0.46613279023991216,0.41936410648950284,0.3821071681182642,0.3457442366602068,0.3093813052021481,0.2730528981920437,0.2368367948794381,0.20163424519392548,0.16996273268494422,0.13776487454520803,0.10323720447843865,0.0749584460387398,0.04166006386314525,0.018590551871958017,0.030063482941328434,0.03792191671950684,0.05162663704142023,0.07314721671861957,0.09242845124069099,0.11070793698996928,0.13029847591358523,0.15677885240101386,0.17694589315295506,0.2001561147353801,0.2218870369343855,0.2422384644617268,0.2685272115314654,0.3077047070799135,0.335701795163196,0.3817498585333876,0.42401807165462113,0.46620612762116354,0.5160071348046555,0.5609934919853439,0.6081209149590618,0.6621699113889026,0.7045317230977752,0.754596099929171,0.8080560400826338,0.8485475122626984,0.9010806193534364,0.9525332894461038,0.984140022646891,0.9983436180554595,0.9848851144712834,0.9828681827995798,0.9631719611990155,0.9219615878820422,0.8787246840750296,0.8320986643042589,0.7867638468349547,0.7389946416251432,0.7287977856094723,0.716633122308362,0.7121178299660116,0.712115576998146,0.7154950369300264,0.7284484666199531,0.7290381051568051,0.7200069319614228,0.6981248601991208,0.6934838056284831,0.6744439079365239,MI
0.482994607686583,0.4513611526516135,0.4150029849991017,0.3786400535410439,0.3422403142204349,0.2991048324555843,0.2586956490989678,0.2223011523616787,0.18974865654501993,0.1549560531912002,0.11872204466799241,0.08359452853776661,0.061984511995390346,0.038732840453194584,0.04299599666311815,0.05545320695829581,0.07344353130703984,0.0917225861422839,0.11000164097752752,0.1293591034576531,0.1517929174591326,0.16990496901759888,0.18807500798261367,0.21154101128019365,0.22477678131024836,0.24830423757658515,0.27650088322959876,0.312976675160364,0.3468595731754984,0.3882622713780721,0.4308078869569161,0.4801170371066035,0.5257362392808469,0.5722287319020123,0.6249620140277097,0.6656763868176143,0.718595707515759,0.7640132182196138,0.8107167613523991,0.8633264325074879,0.9041057669126862,0.9537920693357811,0.9849302443250569,1.0,0.979960705362874,0.979380183572427,0.9769086782247736,0.9377854969618657,0.8966252068032126,0.8560253865361926,0.8117106017002982,0.7663098073201349,0.7278277761689496,0.6994378295177817,0.6941533610502946,0.6838589723394297,0.6942432952928077,0.6886984339647153,0.683766512593154,0.6948568998092668,0.6948820669174927,0.6878407891592153,0.6943196928520439,0.6812948988429466,0.660170261156519,0.6345060193169179,0.6272060780262922,0.6321093487613689,0.6556099936668054,0.6734397447013434,0.6730261088453551,0.6614155311199417,0.6611478093218808,0.6611478093218808,0.6611478093218808,0.6611478093218808,0.6611478093218808,0.6605578543040385,0.6477115776490079,0.6517695424069565,0.6593205164705482,0.6454853041861224,0.6441595713369601,0.6441445305948039,0.6394690454313228,0.6275276472767404,0.6271329076629746,0.6194524054888317,0.6102651829052737,0.6101830953671192,0.6101816940482521,0.6078925371325883,0.5853449458123468,0.5612073210665787,0.5392620647841304,0.507998323432008,0.48193353999168576,0.4465721750189515,0.4089454112134421,0.36263483890038595,0.32582921364256734,0.28953395010249716,0.25331740230376054,0.2171008545050248,0.18088555194605682,0.14636855433046714,0.11835681644154539,0.08301296117168233,0.048168483221125324,0.025642533399088396,0.0,0.0003584765043358473,0.02090351889237363,0.03310611552667986,0.0474197331634052,0.06904583800505648,0.08508585170724947,0.10170494889440551,0.11986847452965232,0.14418261530254473,0.16764866052558736,0.18985503757012046,0.21227087562262037,0.24728249674894398,0.283644854785964,0.3200281638609588,0.35857403957083767,0.40856011364832945,0.4498435819790143,0.502393439673142,0.5428786163666399,0.5953797706810309,0.6422248458509423,0.687559966477151,0.7408563126572436,0.7813108873180692,0.8338763749222675,0.8802502133243353,0.9110302782523831,0.9456301178646727,0.9723332294524925,0.9794641706206546,0.9523167153513907,0.9329212793297703,0.9131088314694957,0.8744492413235743,0.8341539993802964,0.792909513512098,0.7468928475764183,0.7065104021277153,0.6657180476376912,0.6639716785390557,0.6771997610458094,0.6781358810486307,0.678156834605824,0.6845753702733393,0.6935837165879595,0.6801735251174668,0.6760711147839125,0.6614463034841003,0.6464807813138411,0.6281589537498484,0.6010043468276178,0.5977589129897156,0.6173597143209673,0.6493297702475278,0.6609659164774628,0.6611478093218808,0.6611478093218808,0.6611478093218808,0.6611478093218808,0.6611466930170198,0.6592417955800687,0.6452130667799949,0.6441595713369601,0.6441595713369601,0.6441595713369601,0.6441243813009261,0.6369346716485946,0.6272641241065502,0.6271713333520399,0.6271713333520399,0.6271713333520399,0.6271713333520399,0.6271713333520399,0.6271487917778567,0.6215531681003359,0.6037845145123,0.584906630123962,0.5584827067507585,0.5312343685043066,0.5024778732512281,0.46613279023991216,0.41936410648950284,0.3821071681182642,0.3457442366602068,0.3093813052021481,0.2730528981920437,0.2368367948794381,0.20163424519392548,0.16996273268494422,0.13776487454520803,0.10323720447843865,0.0749584460387398,0.04166006386314525,0.018590551871958017,0.030063482941328434,0.03792191671950684,0.05162663704142023,0.07314721671861957,0.09242845124069099,0.11070793698996928,0.13029847591358523,0.15677885240101386,0.17694589315295506,0.2001561147353801,0.2218870369343855,0.2422384644617268,0.2685272115314654,0.3077047070799135,0.335701795163196,0.3817498585333876,0.42401807165462113,0.46620612762116354,0.5160071348046555,0.5609934919853439,0.6081209149590618,0.6621699113889026,0.7045317230977752,0.754596099929171,0.8080560400826338,0.8485475122626984,0.9010806193534364,0.9525332894461038,0.984140022646891,0.9983436180554595,0.9848851144712834,0.9828681827995798,0.9631719611990155,0.9219615878820422,0.8787246840750296,0.8320986643042589,0.7867638468349547,0.7389946416251432,0.7287977856094723,0.716633122308362,0.7121178299660116,0.712115576998146,0.7154950369300264,0.7284484666199531,0.7290381051568051,0.7200069319614228,0.6981248601991208,0.6934838056284831,0.6744439079365239,MI
0.6628695065321033,0.6707896981540515,0.6748207034544036,0.6798475557083754,0.6806277555731359,0.6806292820187279,0.6814209083459759,0.6864045468910434,0.6878540020277062,0.6896364032714188,0.6916779994219608,0.693356405212395,0.6908397093332461,0.692419715019847,0.6933870051040294,0.6933887888928043,0.6933849399473415,0.6917862983948133,0.6826094267241083,0.6717737203304623,0.6693687870440541,0.6695949504586052,0.6700331157163741,0.6836310167271875,0.6973774199063674,0.7049249079362867,0.7061463983809817,0.7056669513783151,0.6946923912764054,0.6681289587535428,0.6409353612367672,0.6185759846492207,0.598956704648723,0.5707739791718396,0.5417747781374302,0.5168356686596136,0.4897729616528173,0.4606589979247762,0.43153493442031093,0.40241087091584554,0.37328680741138004,0.3441891520440639,0.31796399029268557,0.2922413012590976,0.263170825037538,0.23404676153307274,0.20492269802860735,0.17579863452414196,0.14667457101967663,0.11781203750256702,0.09332180061901346,0.06567704101076866,0.03660094401489228,0.011116359407098542,0.0,0.017520001045379263,0.04314230973925848,0.06924135696983358,0.09833463056381114,0.12745869406827648,0.15658275757274187,0.1857068210772072,0.2148308845816726,0.243954948086138,0.2730790115906037,0.302203075095069,0.3313271385995344,0.36045112318786315,0.3892790955043342,0.4137082000336951,0.44144644162294205,0.4705671844778417,0.4996912479823071,0.5288153114867724,0.5579393749912378,0.5870634384957032,0.6161875020001686,0.645311565504634,0.6744356290090991,0.7035596925135645,0.7326837560180299,0.7618078195224953,0.7909318830269607,0.8200559465314261,0.8491795558604593,0.8777357253392484,0.8960606141571437,0.8801242521708086,0.8518804053360352,0.8277589976478523,0.8000998853162908,0.7765320722363402,0.7566224112823303,0.7436849912652022,0.7383773915740983,0.741407852837596,0.7444587254934982,0.7481141795898643,0.7550905676463102,0.7595273300133947,0.7606760146072988,0.7502058521611579,0.7358621742052458,0.7198952050753098,0.7033080696810214,0.6836877331755662,0.6638657089179225,0.6444473180438042,0.625013989876932,0.6044133045642655,0.5887014082684898,0.5895476785726568,0.6032022530769432,0.6177701590484315,0.6335296233145744,0.652120355633462,0.6651785008147266,0.6742643509278388,0.680210168208053,0.6873691887334943,0.6931248987938772,0.6934633456947108,0.6970884311981032,0.6997467683949086,0.6997690605368239,0.6997690605368239,0.6997690605368239,0.6997665083176534,0.6985923036760584,0.6937626886870609,0.6920661198272948,0.6872243019584514,0.681278043023676,0.6672926623852953,0.6563571897042775,0.6523849141935567,0.6404416413161835,0.6380674356494835,0.6523033932751845,0.6687249509313404,0.6741961657908768,0.6742477665240438,0.6737988774702888,0.6630540534103437,0.6365949635811792,0.6083567189503243,0.5841878139007608,0.5556120158598146,0.5264883888871887,0.497364797376379,0.4689970214503057,0.44487200845508573,0.4163717053276292,0.38724834300888183,0.3581242795044161,0.32900021599995116,0.29987615249548544,0.27082309495271367,0.24525401891702198,0.21885359128124643,0.18976017012164342,0.16063610661717842,0.1315120431127127,0.10249690356107743,0.07744849129870723,0.055723662286343234,0.05300214825610183,0.07637201737622118,0.10546552240124468,0.13458958590570969,0.16371364941017547,0.1928377129146404,0.22196177641910614,0.2510858399235712,0.2802099034280369,0.30933396693250187,0.3384580304369676,0.3675820939414333,0.3967061574458984,0.4258302209503641,0.45495428445482905,0.4840783479592948,0.5132024114637597,0.5423264749682255,0.5714505384726905,0.6004772644998679,0.6258032787351098,0.6524614566877953,0.6815665208465325,0.7106905843509981,0.7398146478554632,0.7689387113599289,0.7980627748643938,0.8271868383688594,0.8563109018733246,0.8854349653777902,0.9145590288822554,0.943683092386721,0.9728057575717777,1.0,0.9964752991140633,0.9730387604114197,0.9461934986662031,0.9282009957658326,0.9050991345115171,0.8764920574465853,0.8520539483584506,0.8246587337260562,0.8008959840517731,0.7805454060736097,0.770487568007374,0.76996282206989,0.7721167246800782,0.7790644714352948,0.7826484801275904,0.7827033717430536,0.7803770335556097,0.7683771291232924,0.7542777408983825,0.7370690559908439,0.7210709952708501,0.7045066726029008,0.688054017311474,0.6719796677012122,0.6520869635860453,0.6292571609484692,0.6098328277750977,0.5984419381154633,0.6003450358429245,0.6132757781143696,0.6340854628162378,0.6541837942897746,0.6694415509133123,0.6833052669303921,0.6921729850683227,0.6955021767864442,0.6996486462836495,0.6997690605368239,0.6997690605368239,0.6997691559877699,0.7001089227030362,0.7028135345782263,0.6999129637904369,0.6997690575304947,0.6994722201341363,0.6947733083634902,0.6930575960135603,0.6882827468035893,0.6870117718539475,0.6870085172487848,0.6870085172487848,0.6870056014125328,0.685283082789919,0.6720990813032435,0.6628709075603827,MI
0.8788619201442349,0.8872675694909464,0.8959098321351093,0.9115306979775846,0.9257430558419038,0.9478922571323811,0.9639478275521847,0.9719816766278746,0.9816356365096817,0.9832319186750622,0.9728230582317792,0.9654348222101226,0.9655835356289324,0.9625494444061509,0.9534041177460926,0.9406393653888705,0.9257963753480369,0.8932647955755211,0.8561475117822512,0.8204733671474651,0.7807629321772105,0.7426468069053989,0.7077214316171327,0.6681765790614491,0.6283207336027941,0.5886170654161487,0.5531242969225394,0.515721388172294,0.4758869003785768,0.4360309763526799,0.39617505232678335,0.35650988956432644,0.3212124255808147,0.28364913549199383,0.24901171257566407,0.21781434972182862,0.1863659375750732,0.15305655838101873,0.12353848167220083,0.09104049367169648,0.05362837895715733,0.021551494279040406,0.025241208590363495,0.060296036422004484,0.09783687181492207,0.13317798598251046,0.172855786137663,0.21271171016356,0.25247175287641105,0.2884136641217436,0.32532699457623576,0.3651455433877772,0.4050014674136739,0.44485739143957054,0.48466993821732124,0.5214756246390357,0.5575269896909179,0.5972912246637878,0.6371471486896845,0.6770030727155811,0.7168589967414782,0.7567149207673747,0.7965708447932711,0.836426768819168,0.8762775642662906,0.913012311811934,0.9153146237696073,0.9089032084348674,0.9146465811924691,0.9179595312238729,0.9057389358695098,0.89052735475877,0.8686493342838433,0.8454069553820924,0.8222110976932222,0.7982759889750033,0.7732830154736652,0.75040029727351,0.7283820891031592,0.7139458821417348,0.7181789068136628,0.7424880211936553,0.7709366904325103,0.797387313557014,0.8204815004964965,0.839087193815397,0.8477292663867653,0.8512692608815577,0.848249232840592,0.8517850575157195,0.8536074552753719,0.8599799944292648,0.8666373545264388,0.8733293229892296,0.8816117333639424,0.8853366154158442,0.8852011516941036,0.8813256775097376,0.8705816530608002,0.8637161783247003,0.8729178517927516,0.8821389111414402,0.8882261962282545,0.8868925557450789,0.8837103142782738,0.8727009544072843,0.8403702078632747,0.8012298698683293,0.7613748293536213,0.7215189053277244,0.6816633347015604,0.6423459161813498,0.607757756588434,0.5690816932138083,0.5292291480776106,0.4893732240517134,0.4495636296733389,0.4129064751768257,0.37671758044144216,0.33693939082749663,0.29708346680159964,0.2572275427757033,0.21737223628221175,0.17825623042798938,0.14372299792711307,0.10479233391842618,0.06494085020733392,0.026473229956251176,0.0,0.00851693703889167,0.04186357536031671,0.07966960372546833,0.11951353843862933,0.15936388460548967,0.19770489395190127,0.23247371400509104,0.27194748538663643,0.31180329568874315,0.35153604564192004,0.38729954503310754,0.42441163269637655,0.4642371289129607,0.5040845118553319,0.5413905250179496,0.5710323720242658,0.6096800581937927,0.6481042957147733,0.6774330697505873,0.7107218165693978,0.7481531292035213,0.787991130749182,0.8278428853613848,0.8655051839557266,0.8801655152943375,0.8896848449151447,0.8988348631336025,0.8935051957760869,0.8811998491919752,0.8638820186135858,0.841286299779612,0.8165061014786434,0.7924146011541515,0.7663890001674227,0.740835877331605,0.7176296484126372,0.6935087333951884,0.6793814993947784,0.6868655880629757,0.7088541040535037,0.7373105788580465,0.7673278629765621,0.792469358557027,0.8148093500007356,0.8273926052418867,0.8222605625989001,0.8162111900961695,0.8106761684851109,0.8100441611569515,0.8101714841731673,0.8127806526143078,0.8129665148301937,0.815572713229231,0.8248403096901207,0.8301476251931201,0.8253233595459191,0.8205454927223532,0.8291711665162191,0.8431742767209576,0.8651765895917121,0.8809732202234697,0.8896104476429483,0.8993192018193035,0.9083270612309682,0.8829812513790591,0.8488200586544687,0.8098106143621873,0.7708108565232441,0.7363042268015458,0.6972315106734739,0.6573766598789557,0.6178679806849376,0.5830102676322,0.5447923393573775,0.5049428009751717,0.46508687694927636,0.4253133240092944,0.38917324492488087,0.3524603047853006,0.3126530437250579,0.2727971196991625,0.23294119567326538,0.1931905141071028,0.15726414968364522,0.12032813925971964,0.08136387473425472,0.06037142428765063,0.0840105726366191,0.11831850876489142,0.1570420330665046,0.1968954321972991,0.23672815885741078,0.274037572842109,0.30961627926776064,0.3493292654215175,0.3891851894474145,0.4290279225484676,0.4668672241072384,0.502001493158567,0.5416190226716313,0.5814749466975284,0.6213308707234237,0.6611867947493208,0.701042718775218,0.7408153824117694,0.7769046652108174,0.8136634067251489,0.8534765519994347,0.8933106395355144,0.9303649801437717,0.950051330722101,0.9552362451588574,0.9738167042341443,0.9906239435765078,1.0,0.9900017940352963,0.9749120993983365,0.951598954036573,0.9269071350814198,0.9037617094393766,0.8768858779823465,0.8552723304441752,0.8410003707060452,0.839767808908807,0.8543732231901395,0.874991392879251,MI
0.22108132203078523,0.15924627755337295,0.0956887388384271,0.03945633207017796,0.01218854749154108,0.054143470740708244,0.12023534780347767,0.18623742071690286,0.24405000976642577,0.3080026671765377,0.37462275173532467,0.4332925987798175,0.4260313006056562,0.43634195376309437,0.4825715179186143,0.5368889442436615,0.5935287148081578,0.6585411000180221,0.7251818379670996,0.7918252223300015,0.8584686066929035,0.9250584010325535,0.9824538371319436,0.969238955332169,0.9138392097819856,0.8532390518919344,0.7987534583356657,0.7580436799996411,0.7227517871191236,0.7032488279612077,0.6882657696869725,0.6725116161200744,0.6475243546553802,0.6142774595585625,0.5762023209367402,0.5369248385392047,0.48957174015698146,0.4434514984107454,0.38917405189014054,0.3399220714883935,0.29418759240391945,0.24753069967515362,0.20813561393576663,0.19510820314145882,0.22638176684332967,0.27310537578662686,0.3273529357309388,0.38064956131539907,0.430994507204457,0.48586040508992334,0.5356271937275496,0.5803068569279017,0.617268369446194,0.6275092145603414,0.6195896863232162,0.6142468935853393,0.6119409827425237,0.6181609041030873,0.6303098021925628,0.6398789531908669,0.645769450400391,0.6289791475015016,0.6012223407342043,0.5750048492745545,0.5633745894325888,0.5960443102713511,0.6330723608565707,0.6587306891655669,0.6847159138665886,0.6986307495340272,0.7068962088123236,0.6788418769978775,0.6241223055713905,0.5589536023676624,0.4932007286950939,0.43569780096642274,0.3711928326942031,0.30474324801382147,0.2451491474935532,0.18339977602758206,0.11991932262438287,0.06435609847689205,0.025995977179722685,0.04648746982290586,0.1082216090424577,0.17420102904948598,0.2320040490225861,0.2959723245680177,0.36260554553426183,0.42924892989716423,0.49578123671826946,0.5562108525381535,0.6170905610752713,0.6836490697753195,0.7502924541382219,0.8169357965400652,0.8832810813876815,0.9421595830662446,1.0000000000000002,0.9911084327093318,0.9265002598047156,0.8647859528542912,0.8095508008277161,0.7632063968794436,0.7269864267036559,0.7045465646829545,0.691031418085241,0.6702585911984211,0.6504606729851135,0.6223203622022571,0.5828981948937775,0.5445140970382669,0.5010283463784102,0.4583340450189928,0.40926059002621584,0.3612834728300385,0.31498850920803356,0.2606087872647247,0.21485581448696878,0.19204581496855,0.2087200119768826,0.2519867050069675,0.3059089601018605,0.3652943313547934,0.41895422045800523,0.4718317660742659,0.5219848035999093,0.5686036579704121,0.6072627974246219,0.6268426778209495,0.6267127216683075,0.6173590045079191,0.6162032575485872,0.6246285337787416,0.6388484034754807,0.6552437302232905,0.6628376700300433,0.64151215454966,0.6027750083964118,0.5737909532825898,0.578415839476373,0.6105185280759866,0.6499855886893153,0.6818959015267378,0.7086190372241317,0.7129906342268455,0.6984720213172364,0.6514488020772775,0.5938918016751842,0.5337182137054157,0.46916069708039876,0.4117453272924061,0.34608698131957993,0.2796423471045506,0.22016441928215724,0.1586354293562222,0.10522619265576649,0.057592304613425016,0.006633841606941804,0.0,0.04940038270359648,0.11474633918178756,0.1804069478256809,0.23782366424159207,0.30250577568644554,0.3691457630541164,0.4357891474170188,0.5024130206197441,0.5657163669032539,0.6239897037773319,0.6901893383782027,0.7568326716580767,0.8234759426479312,0.8896000304917886,0.9476510022144129,0.9967475830645844,0.9659637045851455,0.9091541415750319,0.8544477857221062,0.8014692104274175,0.75918031029204,0.7281595504792528,0.7082281102052661,0.691663484458976,0.6753824432276525,0.6519820307038129,0.6214358381035989,0.5858342438017465,0.5438781072697332,0.4931770588087345,0.44514198455602094,0.39602487844350853,0.3504127900584739,0.30317657614155546,0.2654207749037871,0.236791362125641,0.24891805983737147,0.2915394321978251,0.34212847923904866,0.39541622021422596,0.4470254362341137,0.4970117418913227,0.5468971758486951,0.5944050205317097,0.6334836569508422,0.6400387883968299,0.6335213916880016,0.6271775799537456,0.621296357330712,0.6339229137187634,0.6419025940147385,0.6521717507740601,0.6576340698410921,0.6545535444416812,0.6228608025669331,0.5936126801087227,0.5653078358942702,0.5741498290035738,0.6114108186447109,0.6383161052721291,0.6648151301943559,0.6890594848102791,0.698473552809064,0.6782311371768304,0.624498971170661,0.5677341412490713,0.5049966135171589,0.4475643108747962,0.38188237714961404,0.319623067244692,0.2604707778852098,0.19414800733197257,0.13274153455677395,0.07300686821827296,0.016749504270225035,0.00341730078790059,0.04946210167341558,0.11394055964257754,0.17124838649802698,0.23662442524917626,0.30326591633254396,0.3692494020368011,0.42703328385705586,0.4910327956731275,0.5576663395935868,0.6243097239564892,0.6909531083193914,0.7575964340410624,0.823912780953852,0.8825589054656267,0.9344601532507777,0.9066068408171561,0.8497773191553646,0.79141508372646,0.7520347489085719,MI
0.11850915360501668,0.14861963789443644,0.17952142167856577,0.2111761370874895,0.24363141294782997,0.2745201550711951,0.30784326338910306,0.34081864650684557,0.37224703128976255,0.40184359439475814,0.4312875440745807,0.4595440327110073,0.48718796281036303,0.5140906146963267,0.5378905341803126,0.5623731501371234,0.5856000157328412,0.6100327711853377,0.6385457728381044,0.6692227442520337,0.7016162742329743,0.7364656206172516,0.7693706406512119,0.8051836121786197,0.8376211126826395,0.8735477070910403,0.9062303998097837,0.9417552487682982,0.9774049042787941,1.0,0.9856164916363442,0.9519731843373377,0.9207082843752749,0.8984628796422184,0.8936348304179184,0.8898251244146925,0.8819249412929068,0.8719379512686533,0.8551848886043777,0.8605767279057149,0.8707595066158335,0.8724934291905443,0.8686466975621107,0.8650670954761804,0.8612149132878363,0.8610252902943271,0.8610356729207421,0.8627746079642603,0.8695697956962066,0.8740819315195129,0.8614209063766539,0.8419071123497667,0.8155714581502626,0.7860452331890052,0.7554688315730992,0.7246519732995171,0.6903949283771621,0.6539841817912054,0.6215149204564311,0.5891560117192548,0.5550387758676646,0.5224716078749653,0.4873844660745301,0.45497040840248415,0.4211497339699545,0.3880611501812846,0.35542053219949565,0.32046693736425436,0.2879331761675795,0.25330745653706677,0.22093806515042497,0.1883256445465767,0.1550482174680981,0.12245047713292984,0.0902944471052472,0.05918219044917433,0.028397696881197976,0.0,0.012943953857274648,0.043332869821293696,0.07406143518139519,0.10517395872813362,0.13685393994181821,0.16916552261808843,0.20077443864631656,0.2316130915348379,0.2640321247150146,0.29569702809962917,0.3281252577419529,0.3628188490758304,0.39209343466235624,0.4219501384085028,0.4498932717380003,0.47870458895084145,0.5058422063702774,0.5309485846412738,0.5547178392902904,0.5793103731416405,0.6015796693842513,0.6273941275743715,0.6585647098312023,0.6907807977222552,0.7252592181349377,0.7581539853605118,0.7917915177692995,0.8259161690931779,0.8608227982986069,0.8939335239702678,0.9306157367953233,0.9662814626232413,0.9949304058028657,0.9954086334191049,0.9637544148020324,0.9339359872100393,0.9073598992657305,0.8950422915531685,0.8899583472398905,0.8816093954695233,0.8711975771991828,0.8561189992963202,0.8587357202251918,0.870472210908572,0.8688176356592371,0.8668836175513673,0.866865033965497,0.8660430460416203,0.861641400656543,0.8615099612328679,0.8665031269448463,0.8722261397556749,0.8740037218742388,0.860976365899888,0.8392762880733419,0.8131073987813443,0.7837360735477069,0.7524268769436705,0.7208879514096636,0.6891657264128889,0.6568622846439736,0.6220025508928049,0.5879416654985741,0.5613680014782854,0.5290602244045456,0.49637280509275983,0.4623853446285636,0.4297340018778687,0.39494671492192623,0.3620042608883651,0.32756906762695237,0.2944662938543685,0.2618398077094938,0.22785674513817494,0.19525187132420824,0.16493706780726508,0.13931174487309628,0.10810532844881887,0.07657213583060873,0.045006640873487436,0.015803787468804897,0.018323166207079522,0.04693631760763867,0.07834587366883289,0.11054287512245631,0.1418177287709928,0.17306272616378005,0.20459784924844354,0.23628259621253822,0.26849948633418275,0.29924265050889387,0.32927877525785254,0.3533167519427285,0.38424437146538903,0.41584390872357824,0.4460128618755558,0.4744944397056935,0.5010923042568384,0.5277755067792164,0.5512288835150511,0.5728868440738182,0.5976499979397104,0.6234176280448578,0.6528677683628068,0.6850470523095898,0.7182252589858975,0.7527383058339746,0.788062666036191,0.8208061323197798,0.8546241208825828,0.8885313977082266,0.925047192952711,0.9578049836281782,0.9899840839135451,0.9901889678170327,0.9595973928934397,0.9274220413277433,0.9015822297054593,0.8954614184964428,0.8978804054487081,0.8911051745277104,0.8807788889916649,0.8658409270790054,0.8539201791635768,0.8643151194720088,0.8717117666715474,0.8692599390830597,0.8640733274433331,0.8588701607162216,0.8553078155322543,0.855707330166701,0.8604239228302158,0.8655261137903524,0.8655458865666249,0.8540735479442353,0.8302563962127983,0.8025862174979391,0.7734646266033004,0.7428128930727339,0.7111990251184185,0.6795867132253526,0.6519270499375615,0.6439509964326859,0.6358064137479861,0.6297997688727622,0.6134121746749563,0.5983989171185983,0.5668345691205534,0.5511107321134177,0.5476541809436398,0.5306673224696961,0.5051215361760738,0.47158243373738884,0.4382852913071251,0.40576265653235444,0.3701022224074221,0.3333141322877673,0.2994441947242723,0.2658812858961225,0.23362887951498812,0.20132416064994507,0.16744281806597688,0.13529519238647786,0.10330158143278234,0.07184250703453487,0.040948450118652224,0.01114411983840019,0.009608586688807652,0.038051456978981824,0.06819106651020373,0.10295735180058968,0.135508543997428,0.16786555032227385,0.1995309097423837,0.2311740034272336,0.2627966214952878,0.29245211709819996,MI
0.6721782778250274,0.6839479141741123,0.6871744747270048,0.6865605515915976,0.6806477261218933,0.6510877547490925,0.6419928193141078,0.6704997815161655,0.7035310380075563,0.7278071270093525,0.7380228800187976,0.693747416431234,0.6340530036892997,0.5746300097562342,0.5199426129232485,0.4637229203420965,0.40892304846217997,0.35039921210886926,0.2959891391696279,0.237464267525616,0.185569879277676,0.17797383324392813,0.2284371552985528,0.2833271811454199,0.3428560152553789,0.4027256778399726,0.46259543956941185,0.5221997245620833,0.5773286008883047,0.6348560423931633,0.6947030428441276,0.7545728569949794,0.8144423724267336,0.8737224321161472,0.9241583602982333,0.9751123269096278,0.9826451683739572,0.9286192923697933,0.8692203878057068,0.8145374279807458,0.7577232363056863,0.7032769386640998,0.6475802516550704,0.6030614331125639,0.5649484244555529,0.5315011528451181,0.49220511950709045,0.4484381378907458,0.4040148128727017,0.35798260338225374,0.31017597452529877,0.2612803893546669,0.21142164981730804,0.16205423705880162,0.11016162082163528,0.059706337331567716,0.023419639148558935,0.02965602659245914,0.0722177847805523,0.12427008367925418,0.17924786665822579,0.2323045105791428,0.2833755103350366,0.337307891766085,0.39058116375592844,0.4429986891007649,0.49445274058077193,0.5454488822511736,0.5946298039493303,0.6375136686942742,0.6656291862340344,0.6679146977554167,0.6740463630768545,0.6884837646290858,0.7006118438788962,0.7136613608049287,0.7218178764531928,0.6971706803517861,0.6957964921977879,0.7191599971468527,0.7346351222089651,0.7375167155521853,0.6905680164013908,0.6361799879830594,0.5811030492401879,0.5356404758797275,0.48035653509634413,0.4259808829057168,0.3669381228184616,0.3096711289947215,0.25432116191218335,0.19476167328673688,0.13881410895321622,0.09981753923200642,0.1266944108242012,0.18533373532177022,0.24520244398773017,0.30505091336272305,0.36268439999451374,0.41773737031476954,0.47731007689194005,0.5371798089918853,0.5970496231427374,0.6569194372935894,0.7167470139023298,0.7737608714002329,0.8293314694735723,0.8890269881468928,0.9488666131437202,1.0,0.9800982827820754,0.9213146751608774,0.8638940076874757,0.8088212147704479,0.7533575015703529,0.6992997949054724,0.6474088072144353,0.6030810658677488,0.5648243055809885,0.528694254578391,0.4914094984530506,0.4506198257279579,0.40550126972403033,0.3579617459479586,0.30696472288961363,0.2564194610727568,0.2065266572476141,0.1566322944758638,0.10706853962720353,0.05934758534280238,0.023478315940249628,0.035141232564699365,0.08133702426732714,0.13048954079940456,0.18204906873617388,0.23502616125608178,0.2870884669389784,0.3392090137147651,0.3922394585635791,0.44486622711906465,0.49660627486445086,0.5507352091509008,0.6028778104052803,0.646688217768943,0.6742338858994887,0.6814384391563837,0.6891741193935079,0.7054862503961497,0.7169260924871281,0.7156021844353078,0.6955438657608142,0.6774197224194789,0.7002944006427241,0.7254776858871381,0.7475987049038024,0.7583314741657252,0.7170753636531884,0.6590899384700564,0.6036139155746028,0.5487708723338884,0.4939879955913833,0.4390086768177852,0.3816829186179853,0.3244658539712514,0.2759360026683033,0.28331957230893756,0.33749329567575037,0.3972908516398945,0.45712695964401795,0.5143080589930848,0.5697268051674365,0.6293984024931976,0.6892682166440505,0.7491380307949016,0.8090073626647767,0.8675944892969676,0.8884565261258353,0.8399882087773236,0.7834399094242022,0.7288216947930781,0.6759042879216866,0.6273728499135693,0.5863660860960913,0.5507037886580635,0.5135894082827936,0.4735993400640339,0.43098724089977036,0.38478526865726326,0.33202249464823796,0.2828954208608211,0.2324572515693205,0.18255310705882544,0.1322508371779093,0.0816265937309828,0.033764877455596976,0.0,0.015784956783438275,0.060789637687449716,0.11123455039128294,0.16222822530511316,0.21546247287088982,0.2695100391355316,0.32281131837570276,0.3760412592545864,0.4286140511296199,0.4831536689255822,0.5384525301974479,0.5878465492189171,0.6328499723722101,0.6596913607985204,0.6684885754587688,0.6820755896503303,0.6939644558172329,0.7019370873579194,0.6831819767958869,0.6767715937372247,0.7014478793531866,0.7159260252970054,0.7316055120783838,0.7070999633998061,0.6536165610722446,0.5944901186764813,0.5404646156745336,0.49328867315042024,0.44123755789455865,0.3843713352590892,0.3290849741001103,0.2717963685246194,0.2119899698586052,0.15473598637378028,0.09948783417242002,0.05034881913162781,0.06129749158222941,0.11319617183128372,0.16110834906791516,0.2059543803284467,0.2601951686373477,0.31996021288879395,0.37983002703964663,0.43969984119049776,0.4995649776014097,0.5581953492060618,0.6126388453958138,0.6718085047083222,0.7316772061946522,0.7915470203455053,0.8514144098802487,0.9085105372716322,0.9151984622277585,0.8637833954502072,0.8040936479487086,0.7446519491351182,0.6904053771926775,0.6399473704734377,0.6000815484286035,MI
0.5998224758091744,0.574236730564567,0.5686808208420773,0.5814872814255869,0.5856622890942029,0.5810274983721864,0.5741297075261242,0.5713656581584459,0.577113851054013,0.572687992032715,0.56998739351848,0.5701191158233216,0.5805884807812804,0.6070653450762276,0.6372220608991555,0.6632418239141111,0.682413895781719,0.6776310753867993,0.6510447555562215,0.6252674247961485,0.5924305599251671,0.5595593894771493,0.5286235175255383,0.5003028092480613,0.47637968762531857,0.4565925001341491,0.44356004251088854,0.4429876117054903,0.4378162968236925,0.41800319472092085,0.39024148806442316,0.35495622570894203,0.31694227429084054,0.28010693765739236,0.2389758224828462,0.2027529558431228,0.1612965013219061,0.12077001598664061,0.08417163019697482,0.04368137902741365,0.009900752760264364,0.012576830767297764,0.04779743873124165,0.08903578318204741,0.12517201389639043,0.16162077527953522,0.20092855870108672,0.24324331776663222,0.28557095933876986,0.32533917125154477,0.362538965239535,0.40469157678829304,0.4469395551801112,0.4849199099320518,0.5238388626114854,0.5661397687314165,0.6083490177247599,0.6458998269341263,0.6852710762476475,0.7275879942138088,0.7699292710228907,0.8107715597870242,0.8471875798975645,0.889035813272534,0.9306469485189963,0.9668409350944946,1.0000000000000002,0.9958381159751928,0.9634728650809408,0.9246989385720172,0.887338810786533,0.8464444472663397,0.8101239174628752,0.7694347959662777,0.7332015708355255,0.6916509039716459,0.6493592528918204,0.6110374880512814,0.5880485412502148,0.5853767797329432,0.5795650354442914,0.5839035582330969,0.5913502690656915,0.5777933290162913,0.5522836914492981,0.5593313218256992,0.568361331712542,0.5733451644738683,0.5680972725300217,0.5642225003069168,0.5653386971237109,0.5616038772729206,0.5556360598942589,0.5511598842723882,0.5431083214223829,0.5475724925235377,0.5733297926646872,0.6039760087732857,0.6290179981384247,0.6574446328106134,0.6685220597733907,0.65418050389158,0.6259053293573795,0.5958744080062708,0.5662650040405961,0.5348626269098682,0.5075706734568832,0.4846996913534858,0.4674883522362534,0.45316664389549444,0.4483138796472117,0.4369102625947381,0.4198685193846956,0.3948252866030941,0.36159643017298126,0.3262272165659552,0.28839250403819516,0.250469973414571,0.21159356001576712,0.16931646942212386,0.12998587598582345,0.09240087522577645,0.0509069323629846,0.015353263199259781,0.0026377124132654917,0.039403643153923196,0.08163913641812448,0.11966987539802953,0.1564377607766987,0.18304414375646427,0.21944278936653405,0.2605604934975734,0.29685932923640634,0.3384822354177699,0.3802894017649121,0.4167104351284243,0.45758796044749084,0.49991180088942544,0.5396609750995744,0.5768781110174324,0.6190328411984571,0.6613783538540992,0.7035866869898937,0.7411331501637721,0.7805094814619458,0.8228265793364911,0.8651008780787381,0.9034772060500218,0.9415336488141506,0.9696927396410551,0.9604406416874529,0.924544443198309,0.8824360679486491,0.8445984805339408,0.8055472135081649,0.7659949361065399,0.7286295051418308,0.6877382365233387,0.6514508426926109,0.6130248746784508,0.5853695340662266,0.5826417315581871,0.5748050788208976,0.5710626173576403,0.5782819267162755,0.580216025673254,0.5557132266978233,0.5430494096656993,0.5544639625489276,0.5664695542843667,0.5699276471876675,0.5699662325927468,0.5693315089401836,0.5633171647857464,0.5618582680412052,0.5568400215014992,0.5542066118475255,0.5600717747774602,0.5800167313274864,0.608518072487712,0.6328040255961049,0.6532726038917522,0.6451724939911341,0.6234727275792058,0.5924182691436615,0.5632036879399576,0.5326905469927052,0.5027872990172888,0.4727562688823497,0.4538470987333241,0.44314710457925277,0.43759699816023145,0.4394425430418909,0.4297105794673559,0.4116341800047494,0.38153274141342797,0.34398257869939375,0.30178089654834217,0.2628466979149495,0.2248824965806988,0.18355263444820735,0.14732598828452925,0.10590552491379668,0.06656593159209578,0.029079302781084504,0.0,0.02612303410966732,0.06400814188188697,0.10232785642028208,0.13871801915034965,0.17783024901983724,0.21438067991987442,0.2560320716613049,0.2929059072702478,0.3330800137834913,0.3754125629863718,0.41688672373247915,0.4531068913445391,0.4945178548960696,0.5368619097131215,0.5789988117930549,0.6162062841988027,0.6559803100003454,0.6983101410284291,0.7405574612013284,0.7785279839253827,0.8174189125383966,0.8551037911467498,0.8867178189852003,0.9236403638578552,0.9629853184616846,0.9985993316232966,0.9918708241348388,0.9582160396215695,0.9218589017915164,0.8839501662694569,0.8474897433056707,0.8062056798144883,0.7698561328230593,0.7288633865060945,0.6877924252759826,0.651594863026018,0.6152050512810316,0.5995797326193757,0.6000302943469176,0.5942361254091033,0.5966427851938518,0.607409753835463,0.5920991518533381,0.5643080280811732,0.5670166826095129,0.5806722836091129,0.5844541391674054,0.5783826895760833,0.5732916671437054,MI
0.14550709127186612,0.17589927768114477,0.22321278495167296,0.2756672498336672,0.33217421865244945,0.38636987585119065,0.44008171215211234,0.49899334842538656,0.5611810771737156,0.6153270195330343,0.6740539311194518,0.7365721797859173,0.797097965357872,0.8500724322267235,0.9113430187041465,0.9649030264706944,0.9999999999999998,0.9820777718842064,0.9337714445969232,0.8730879536521152,0.8147598005361487,0.7602611873470366,0.6980029311303018,0.6354579310657342,0.5732578244059063,0.5189905486436681,0.4604031246482079,0.4026179856524317,0.365245449632569,0.3418994418085133,0.33750912670874755,0.34280361764205325,0.34761655815816517,0.3219876691436292,0.30663426941956184,0.3173411070635803,0.32984443652017315,0.3399014502590616,0.3388382610133511,0.32077285354356255,0.2964784311699893,0.2570681160440069,0.21427526891112314,0.16357112762837223,0.11572893827347897,0.07803139058286268,0.0407386583940017,0.03013102536838197,0.06338931385151092,0.09183934985695963,0.11558795564293245,0.13015034649098323,0.14678806512219889,0.16979438716391249,0.21218578909918295,0.25783688072294475,0.3084676419112029,0.3682757276293531,0.423104164277899,0.4810568780349993,0.5435619648874794,0.6045621410235735,0.6573887206876277,0.7184314210848355,0.7735948331754787,0.831132876443559,0.8886670753083148,0.9436156461704626,0.9871665394180156,0.9663507753526928,0.9154349625505811,0.8532803993370723,0.7907902914793745,0.7336810866693917,0.6780931124726941,0.6156782505594316,0.553182421772979,0.49582795179308037,0.44050783962390283,0.38478824658819,0.3511139693351122,0.3347486240272761,0.33459375080593134,0.33506143215583006,0.3394868428499145,0.32853149420845296,0.30870301608438777,0.30902945171649,0.32135549032115507,0.3333461127592743,0.33123196405862676,0.32001001478095836,0.2925990000955594,0.2572530631055805,0.2167470286625386,0.17291047859960518,0.13413919907898553,0.08645556423973577,0.0451381446223198,0.020336145583941923,0.0373953486782459,0.06486336660922176,0.08677350326316047,0.11121454547274601,0.12892207105557874,0.14497922463904733,0.1745062520684031,0.22553927560353482,0.28091104261651023,0.3379119127415724,0.3935545909169924,0.45054441445842186,0.5106571261219115,0.5637408278579434,0.6255395683537126,0.6858277747677193,0.7388761852389705,0.8005971437415449,0.8609984234135262,0.9136627608442136,0.9594832699390847,0.9532671993160229,0.9053565342238408,0.8462112652067517,0.7905011134871283,0.733499674586884,0.6710218246418529,0.6088954628671084,0.5549141533724689,0.49594756188949884,0.4334541279413273,0.37762146167398014,0.3447444704161915,0.32838638692931554,0.3297329380904206,0.3465830507507819,0.33865611947358665,0.31207632004253294,0.316947408077368,0.3243244075787548,0.3275584684612729,0.33259724719310335,0.3321092745190193,0.31892976816242524,0.2976539825422988,0.2612548184360126,0.2202361175066032,0.17108160122714344,0.1293619943984352,0.08810368144301606,0.05173542188157798,0.0448292880609269,0.07191156496557904,0.09624988913899424,0.1144184064735112,0.12884769228747617,0.14830627663191054,0.17720914991183334,0.2165042775276509,0.26672232920861183,0.3207403953232253,0.38101170169274323,0.4339474504877263,0.49542024739297275,0.5561822846022999,0.6090828078687529,0.6704145312130929,0.7274521617150864,0.7830787022212065,0.8400996016080005,0.8956457796578328,0.952417186868826,0.9567537285517547,0.9114603985250811,0.8511061623735279,0.7888479786592926,0.7343402312629383,0.6760288606411196,0.613507932628605,0.5511988846612674,0.49650916557231395,0.43863683538159015,0.38413738830673716,0.34148834942351924,0.3201123716142684,0.3124860068268809,0.3245372947658598,0.34863611208007694,0.35601730045892377,0.32447322296214565,0.32427419711875793,0.3288589865240483,0.3357296237942433,0.33863955305551996,0.33528467056313516,0.3279809087354886,0.2983793700719992,0.2615054046637828,0.22414261527398938,0.17758347713808442,0.13985908991256646,0.09174025763258697,0.04392058752147432,0.003564254181909865,0.0,0.022388924056341963,0.050144904731341144,0.07453911987134099,0.09766170961170628,0.10981976221193501,0.13116544471272595,0.17618668406764293,0.2282014873268785,0.28212344944862644,0.3393534193914862,0.3947594355293107,0.4520170962764498,0.5140854437653146,0.5669680231407586,0.6100222653826644,0.6644538089917849,0.7225440126036633,0.777175245433755,0.8391035453558253,0.8926677893232393,0.9349934967324336,0.9272396376064898,0.8789783499450652,0.8231557475122895,0.7821007280352303,0.7314441551877977,0.6695417567062194,0.6070341850353842,0.5490462804678635,0.4942420192262629,0.4319476137060414,0.3730685594523704,0.3377779042320268,0.31637153850915056,0.3096006559694453,0.31843981163746116,0.32362724327533043,0.30933630895328457,0.3029183934283084,0.3028408587966662,0.30577627879138736,0.30867560167765284,0.29494060693123614,0.2728509272905557,0.23520903749443067,0.19303707631942735,0.14401175177115566,0.09567243200482034,0.056858772741736896,0.013943143684383541,MI
0.5068170333722604,0.49698317037403106,0.4831194066893607,0.4615387806301132,0.4365383834185894,0.40858458457856806,0.3760855618493131,0.34376117367405223,0.3127269975193463,0.2800717201929357,0.24562972167315245,0.21015423305338832,0.17355247022989984,0.14266951694546082,0.10836313302280387,0.07759411343633493,0.04995785981275991,0.023944741194928065,0.014345847909315035,0.026580719972362665,0.04302743184977276,0.05722167761689412,0.06898004555609338,0.08872488300408499,0.10479034482887517,0.11281802672538288,0.12376243329042924,0.14260085737649253,0.16434157984286868,0.19563263576428191,0.23119405906939905,0.2677265168704621,0.3037595794732262,0.3438866502065554,0.3779409676663774,0.41693716967252703,0.45651002444634003,0.49031712599944055,0.530179704114194,0.5687775578134733,0.6030776280092196,0.6434341095220941,0.683365227191421,0.7171767678723981,0.7566861586828679,0.797373959437573,0.8356206750159805,0.8699434720877839,0.9042188724135067,0.9371377039645528,0.9420988851834284,0.9121184183588571,0.8764336777307398,0.8426625730210628,0.8027981433196782,0.765923721617318,0.7301066176566573,0.6906882074833902,0.6568777703965842,0.6175262065880551,0.5835769675580273,0.5451091084614967,0.5155938027162688,0.5077109707178795,0.5076349294306532,0.5072647468390801,0.4966681881768078,0.47386981822506447,0.46528331279948376,0.47757906269818307,0.4862397755688257,0.4899176368027176,0.48997303319155994,0.49288800291376056,0.4985446107918212,0.49475675346060544,0.4866642241758288,0.4768456226880031,0.4714673746136986,0.4629842328765321,0.4553906871292277,0.4608530761495335,0.4643390624520063,0.4718510683523529,0.479761013088718,0.4863674935163418,0.49262207855998574,0.49855144426440257,0.49585664244649985,0.47859854939055246,0.4550028989065813,0.4203132497674724,0.38930601471956194,0.3594823288617408,0.3270197049699475,0.29314145198936314,0.2602874979623462,0.22864059868190978,0.1968920264275018,0.16398355835281997,0.13255165588697504,0.10423491691597553,0.07061953647812058,0.04279561577288127,0.01802851297980501,0.01992020074437617,0.031268062183585243,0.04459383252508253,0.05806614352608008,0.07107586830275792,0.08986626821512411,0.10390310030273109,0.12100091220702103,0.12932652339157835,0.1481688056395356,0.18044907454321746,0.212567246244048,0.24537252448838864,0.28222230400916426,0.31746805384407795,0.3579236273364077,0.39360479063762743,0.4200573208435774,0.44798390546229827,0.47718164813818587,0.517289324049304,0.5578167874129603,0.5928084977591377,0.6305546909571418,0.6712350906066062,0.7110295111129916,0.744806568212238,0.7844828896461318,0.8234381978005774,0.8573732971182684,0.8921512382849619,0.9273039301630943,0.936576503050619,0.9107453490035629,0.8757766714722803,0.8391634678988111,0.8051876919913099,0.7663225296184788,0.731403528949123,0.6938054161546023,0.6591729211652035,0.621000797973323,0.581910898680563,0.5480962238663891,0.5222920265419091,0.5222761465991062,0.5130209945689412,0.5137207358655098,0.5122126256684849,0.5030669636279508,0.4803684474753598,0.47955276615508735,0.4980277782817111,0.5056713037159142,0.5009409376824256,0.5041331494588464,0.49897418441904473,0.49878358048765037,0.4958336764646105,0.4860234255067821,0.4891546131987632,0.4804277308163767,0.4727443357757546,0.4778148304589813,0.4858407676552947,0.49097770247783656,0.5012173289129243,0.5118979923557185,0.5195813756526044,0.5210598744449275,0.5291404805142255,0.5317084108019359,0.5184100114338241,0.49426986933113426,0.4663443037726649,0.4389373569581554,0.4063065157405992,0.3723876051287496,0.34144791038588806,0.3088284232447702,0.2743768755047009,0.2416817074703983,0.20762048843500014,0.1733903794228817,0.14160958085238495,0.11104365417914241,0.07387416669919822,0.04477879474820412,0.015594281722616232,0.0016556629001034384,0.0,0.007204397372388094,0.022149532464843302,0.044620169854974634,0.06015229501121255,0.07419930846854927,0.08872581871844121,0.10459473150735965,0.11658042803020252,0.13396259276037759,0.15990861558690983,0.18795656409826322,0.2217827279226492,0.26205217337809295,0.3027485603461999,0.3434161021879507,0.3805997350907844,0.4161207453324609,0.45632566011444764,0.4906024234786015,0.5292562404842893,0.5696556315655956,0.6041559971269632,0.6425089534446515,0.683195041897497,0.7237554119368326,0.759115474288856,0.7964705515851611,0.8371177699901595,0.874579524453527,0.9097127509402749,0.9448823039574807,0.980608411679563,1.0,0.9815579198373885,0.9449404445950265,0.9096618703456578,0.8727475268766371,0.8371003815207414,0.7969602638125544,0.7671589678464481,0.7340380816006815,0.7002701737297723,0.6602992399340835,0.6236477424375997,0.5876817551823119,0.5522292590832663,0.5365123542613819,0.5393757919653197,0.5377173413812801,0.5410221068212713,0.5312941852526325,0.514185735369312,0.5040183947745926,0.5196595955019572,0.5373051731632226,0.5310844842459654,0.5350724458646385,0.534716038435068,0.5255049379569463,MI
0.0,0.02222629963348499,0.04604083802644232,0.07234293829823502,0.09943641039975559,0.1250835507238306,0.15024548883329958,0.17280861257793667,0.19529618786836678,0.22009827671338056,0.24131891661821925,0.26747551737134767,0.29383184257391215,0.3190977362756007,0.33745455424131277,0.3567367855033978,0.3776318288799725,0.3972790785286069,0.4139926017223632,0.43458324796276715,0.450442731531433,0.4616636858616672,0.48808104050743206,0.5211182386035498,0.5601323256255479,0.5978731731307851,0.6327464223562942,0.6741968405543826,0.7084743949801453,0.7468823748333189,0.7853047050792461,0.8195936828131614,0.8611534838595061,0.9029440638330151,0.9410659580498204,0.9669784707241327,0.9950243427444301,1.0,0.9772560800762617,0.9406851458669387,0.9059403105717312,0.8669196801814771,0.8333431234417894,0.7934580819050989,0.7604008718809756,0.71959594810567,0.6853849214471031,0.656050437867872,0.646603340082907,0.6410692727376819,0.6352830641744733,0.6282829860027002,0.618016975169075,0.6131181577737095,0.6124607847914367,0.6036668068189635,0.6019500157974678,0.6019052705991561,0.5972024385635617,0.5909018853568093,0.5908094338318506,0.5908094190535569,0.5906700510395566,0.5837446978466858,0.5848891054276546,0.5907285027466112,0.5908094338318506,0.5908094338318506,0.5908116854753636,0.5927892276046529,0.6028423829560485,0.6122800762510077,0.6130864441497308,0.6130869346347942,0.6130869346347942,0.6130869346347942,0.6130869346347942,0.6130869346347942,0.613086955097047,0.6133438777397373,0.6212333268036703,0.6242163101680707,0.6242262983702451,0.6253558879114913,0.6368811723633463,0.6431574864386089,0.6394826283727444,0.6474746601574843,0.6564800336831591,0.6518389602155072,0.6440168341122303,0.626466305790238,0.6029781542195951,0.5751409438028072,0.5422520837146731,0.508012542403818,0.4764685947432754,0.44031601698267253,0.4074642393157608,0.37110887148671745,0.33744708902800924,0.30485936202256925,0.27166149786031424,0.23346554751366488,0.2003211530591349,0.16358119311443597,0.13201776634326556,0.09933291078497675,0.06697655789152579,0.03658796391668573,0.012876684879714162,0.011331915242880797,0.03316641393558184,0.05540046746151739,0.08096359800367514,0.10620108511920834,0.1307250696935176,0.15999021678071834,0.1899801879614058,0.21790287517390539,0.2449149023992514,0.26718711930046624,0.29390829701358445,0.315354787343773,0.3348515186268486,0.35574904277676156,0.37655883456451456,0.3934760879222159,0.41268771202279364,0.4285643845955813,0.4421057933838566,0.4529136783874361,0.47467890709742466,0.5064878493222718,0.546931452926094,0.58224402678448,0.6195439479447493,0.6605113866100598,0.6935532856701627,0.7337745239260132,0.7725899954077007,0.8065713101355736,0.8479331298263197,0.8831905008963421,0.9203077320373865,0.9534801497743186,0.9782775200656961,0.990421364141902,0.9693109275952816,0.9365192760500398,0.8971855814532965,0.8629607660355338,0.8244623215010329,0.7861453142407604,0.7517841608873854,0.71088241344536,0.6780084960779291,0.6459996575277791,0.6375799325702842,0.6474288340369305,0.6568514980683828,0.6576414583890866,0.6575932623866556,0.6527150973186415,0.6466179962343837,0.6518733211415675,0.6621476855402488,0.6686801708093908,0.6687806803897982,0.6687808071420875,0.6694338335028678,0.6781283491609005,0.6799167866055456,0.679919437043625,0.679919437043625,0.679919437043625,0.679919437043625,0.6798420871374029,0.6747628384434075,0.6781977540218165,0.679916071170704,0.6784140050411376,0.666527722335575,0.6519450898369654,0.6305022523581676,0.6029166445229031,0.5750189319671224,0.5469602955058837,0.5132107134855985,0.4816642230877606,0.44954871315253175,0.41635995358600764,0.3775956622296166,0.3373425459117667,0.30431783190607864,0.26582771171385033,0.23288358654172714,0.20018421731002545,0.16621026155813934,0.13037235218116217,0.0981024818892604,0.06790837708606912,0.038033281427932275,0.012373305954988645,0.008510749159069464,0.02866212777613497,0.053933650032700564,0.07626752365112299,0.10280851694181381,0.12858606938169803,0.15142421549859186,0.17893595765096326,0.20265316727411253,0.22930265933056293,0.2555247723300109,0.27934698428213434,0.3029250740235101,0.323839640437916,0.34473938114527836,0.3643450025088504,0.3841397426016533,0.4020535551713289,0.42098311396416555,0.43516786897300763,0.4490636781773074,0.46405003717747917,0.48598092599869624,0.5143578813567711,0.5556840674932522,0.5944750529354901,0.6284768785304324,0.6698412296071021,0.7050706147503569,0.7424600286526557,0.7840470490864697,0.8186605647961152,0.8566510130093365,0.8924707557027403,0.9238003778734654,0.9518794697767303,0.9756153478146898,0.9758581905729486,0.9489715051592738,0.9134562504559729,0.8771019719382305,0.835337766174749,0.7936075579160731,0.757419046684138,0.7210535210542943,0.6840184783409309,0.6629813360936692,0.6576704422751665,0.657641930556722,0.6575425724518906,0.6513196728106763,MI
0.6628695065321033,0.6707896981540515,0.6748207034544036,0.6798475557083754,0.6806277555731359,0.6806292820187279,0.6814209083459759,0.6864045468910434,0.6878540020277062,0.6896364032714188,0.6916779994219608,0.693356405212395,0.6908397093332461,0.692419715019847,0.6933870051040294,0.6933887888928043,0.6933849399473415,0.6917862983948133,0.6826094267241083,0.6717737203304623,0.6693687870440541,0.6695949504586052,0.6700331157163741,0.6836310167271875,0.6973774199063674,0.7049249079362867,0.7061463983809817,0.7056669513783151,0.6946923912764054,0.6681289587535428,0.6409353612367672,0.6185759846492207,0.598956704648723,0.5707739791718396,0.5417747781374302,0.5168356686596136,0.4897729616528173,0.4606589979247762,0.43153493442031093,0.40241087091584554,0.37328680741138004,0.3441891520440639,0.31796399029268557,0.2922413012590976,0.263170825037538,0.23404676153307274,0.20492269802860735,0.17579863452414196,0.14667457101967663,0.11781203750256702,0.09332180061901346,0.06567704101076866,0.03660094401489228,0.011116359407098542,0.0,0.017520001045379263,0.04314230973925848,0.06924135696983358,0.09833463056381114,0.12745869406827648,0.15658275757274187,0.1857068210772072,0.2148308845816726,0.243954948086138,0.2730790115906037,0.302203075095069,0.3313271385995344,0.36045112318786315,0.3892790955043342,0.4137082000336951,0.44144644162294205,0.4705671844778417,0.4996912479823071,0.5288153114867724,0.5579393749912378,0.5870634384957032,0.6161875020001686,0.645311565504634,0.6744356290090991,0.7035596925135645,0.7326837560180299,0.7618078195224953,0.7909318830269607,0.8200559465314261,0.8491795558604593,0.8777357253392484,0.8960606141571437,0.8801242521708086,0.8518804053360352,0.8277589976478523,0.8000998853162908,0.7765320722363402,0.7566224112823303,0.7436849912652022,0.7383773915740983,0.741407852837596,0.7444587254934982,0.7481141795898643,0.7550905676463102,0.7595273300133947,0.7606760146072988,0.7502058521611579,0.7358621742052458,0.7198952050753098,0.7033080696810214,0.6836877331755662,0.6638657089179225,0.6444473180438042,0.625013989876932,0.6044133045642655,0.5887014082684898,0.5895476785726568,0.6032022530769432,0.6177701590484315,0.6335296233145744,0.652120355633462,0.6651785008147266,0.6742643509278388,0.680210168208053,0.6873691887334943,0.6931248987938772,0.6934633456947108,0.6970884311981032,0.6997467683949086,0.6997690605368239,0.6997690605368239,0.6997690605368239,0.6997665083176534,0.6985923036760584,0.6937626886870609,0.6920661198272948,0.6872243019584514,0.681278043023676,0.6672926623852953,0.6563571897042775,0.6523849141935567,0.6404416413161835,0.6380674356494835,0.6523033932751845,0.6687249509313404,0.6741961657908768,0.6742477665240438,0.6737988774702888,0.6630540534103437,0.6365949635811792,0.6083567189503243,0.5841878139007608,0.5556120158598146,0.5264883888871887,0.497364797376379,0.4689970214503057,0.44487200845508573,0.4163717053276292,0.38724834300888183,0.3581242795044161,0.32900021599995116,0.29987615249548544,0.27082309495271367,0.24525401891702198,0.21885359128124643,0.18976017012164342,0.16063610661717842,0.1315120431127127,0.10249690356107743,0.07744849129870723,0.055723662286343234,0.05300214825610183,0.07637201737622118,0.10546552240124468,0.13458958590570969,0.16371364941017547,0.1928377129146404,0.22196177641910614,0.2510858399235712,0.2802099034280369,0.30933396693250187,0.3384580304369676,0.3675820939414333,0.3967061574458984,0.4258302209503641,0.45495428445482905,0.4840783479592948,0.5132024114637597,0.5423264749682255,0.5714505384726905,0.6004772644998679,0.6258032787351098,0.6524614566877953,0.6815665208465325,0.7106905843509981,0.7398146478554632,0.7689387113599289,0.7980627748643938,0.8271868383688594,0.8563109018733246,0.8854349653777902,0.9145590288822554,0.943683092386721,0.9728057575717777,1.0,0.9964752991140633,0.9730387604114197,0.9461934986662031,0.9282009957658326,0.9050991345115171,0.8764920574465853,0.8520539483584506,0.8246587337260562,0.8008959840517731,0.7805454060736097,0.770487568007374,0.76996282206989,0.7721167246800782,0.7790644714352948,0.7826484801275904,0.7827033717430536,0.7803770335556097,0.7683771291232924,0.7542777408983825,0.7370690559908439,0.7210709952708501,0.7045066726029008,0.688054017311474,0.6719796677012122,0.6520869635860453,0.6292571609484692,0.6098328277750977,0.5984419381154633,0.6003450358429245,0.6132757781143696,0.6340854628162378,0.6541837942897746,0.6694415509133123,0.6833052669303921,0.6921729850683227,0.6955021767864442,0.6996486462836495,0.6997690605368239,0.6997690605368239,0.6997691559877699,0.7001089227030362,0.7028135345782263,0.6999129637904369,0.6997690575304947,0.6994722201341363,0.6947733083634902,0.6930575960135603,0.6882827468035893,0.6870117718539475,0.6870085172487848,0.6870085172487848,0.6870056014125328,0.685283082789919,0.6720990813032435,0.6628709075603827,MI
0.9240611726472584,0.8919452712350645,0.8513879399907652,0.8150774914845628,0.7766365411033721,0.7409748573081406,0.7012692873505005,0.6632109179881834,0.6262582187697517,0.589285498633841,0.5512381833724315,0.5099513089119029,0.470523380212141,0.45870247147625387,0.46117540946187374,0.4560194996482828,0.445529544863572,0.4346498633014858,0.4429396419169923,0.451546798618914,0.4492221474159831,0.4508483688106478,0.44130010801673214,0.4284601294546221,0.41455384760387404,0.4019833346453233,0.4002246175934262,0.4083500364309435,0.42559232098864996,0.43960593027283135,0.44840586566406426,0.44831704705627773,0.43185209262538493,0.40661037492620855,0.37818842162535626,0.34641750906249424,0.3133508851482464,0.2802667880687225,0.2462155723484466,0.21115076444761993,0.17148511622813578,0.1373197980258306,0.10424305756271923,0.07121204514023494,0.040113846369060124,0.012357506657252104,0.0,0.022897542830172868,0.05032669016026159,0.0744933742380286,0.10017954354394598,0.12385579002971714,0.14811163086004087,0.16894870502003012,0.19134873609998093,0.21030220760401164,0.23529085025815755,0.26554614974819446,0.2979180503592874,0.3335058032160244,0.37133988478860147,0.40748453204658797,0.44653220318344855,0.48784290566036426,0.5291673783662197,0.5704909550648244,0.6110552947870184,0.646487487875295,0.6867978370569267,0.7281203528562029,0.769231630821816,0.8055415917326155,0.8444397412678856,0.8857432229473327,0.9254415779391142,0.9610802194159843,0.9955834086535925,0.9999999999999999,0.9702262882072791,0.9395863308620928,0.9088613879811568,0.8690999830184031,0.8311888139725147,0.7943224928843898,0.7584946536367118,0.7190899521262623,0.6777730695158802,0.6365118652208276,0.5990309753058519,0.5614230193394606,0.5224502589782457,0.48644334171921677,0.45702795704157817,0.4534027454614621,0.4480395869352968,0.44243503627650604,0.43497517808893005,0.43789216425263755,0.44502504187625413,0.4462932667380711,0.4510441051613495,0.4473249194900496,0.44184233182306343,0.42854718897335287,0.41506687595974745,0.40596583517173246,0.4003044260652743,0.40340227669052686,0.4194726197154769,0.4321436289316031,0.4408699788019811,0.4430323378156297,0.4285400154704152,0.40303688032913143,0.373492108873518,0.3427914370271873,0.30847511781342407,0.2756134654628545,0.24383627216025638,0.21034214295667664,0.17577336798610277,0.1377347568491306,0.10506667343802445,0.07251318063464696,0.04340663912848253,0.019233217845903927,0.024163352984562847,0.04786798666063541,0.0772112888611437,0.10159563841284369,0.12714937502296142,0.15074388887676304,0.17183574188895656,0.19429927560524118,0.2141144190929295,0.23653593169922027,0.2653539718977552,0.2957203968426473,0.3301201285138705,0.36804277959055776,0.4034703118635675,0.4431741270428048,0.47859001413923863,0.5189440871552232,0.5572733147127676,0.594085462057255,0.6352756390769784,0.6766001041334005,0.7179245768392567,0.7592490495451124,0.8005735222509683,0.8418903197134165,0.8812811107362365,0.9171181098105289,0.9538368378901628,0.9826581783813538,0.9782612430467384,0.9497284717505742,0.9220962568496033,0.8855457532270047,0.848477502498067,0.8082079258032905,0.7727880817823621,0.7323993079926115,0.6955481652647019,0.6586552043873942,0.6231004657976943,0.5823114925924638,0.5409875768425813,0.5001409830402822,0.4692238700586818,0.46102180238737567,0.45040224244855753,0.4313577489052415,0.42539685547784634,0.44258911273362045,0.46059311117420665,0.46518003000884145,0.46465122616124,0.46456562702697723,0.46082876319260546,0.45622845238276366,0.4587058698146983,0.4499400662918106,0.4366569449942156,0.41931700597932087,0.40290664572319546,0.39420293955606944,0.39476592306553393,0.40174330549692006,0.419937275719532,0.43233121575860267,0.438052500667203,0.4353575683533336,0.4165939845784544,0.3914269194370562,0.3623282917478542,0.33772176708046453,0.3090860803005039,0.2730056180952859,0.23811952396685487,0.20414567657550775,0.17190106813110095,0.13847529978971995,0.1061136812275788,0.07568827274672707,0.04621259449430182,0.02285044811955006,0.0333828959634892,0.05758694674624143,0.08285382873866365,0.10502389409672086,0.12931398195418298,0.15316618954347339,0.1764285250739951,0.19698355755784613,0.22676223522991712,0.2521839494696966,0.2745854858592719,0.29454017228436424,0.2950513206778079,0.3062501556735765,0.3154925435471517,0.3467934941756706,0.3842444601224587,0.4207200331245028,0.4593495715113044,0.499531067161641,0.5350117183382458,0.5756354637485196,0.6169593258395777,0.6581678674866757,0.695015229681447,0.7332971214749483,0.7745878174244617,0.8156854273129003,0.8519335111470873,0.8907315259168781,0.9271731095423928,0.9616326021797493,0.9697127894833925,0.9428531726156365,0.9094540278935349,0.8772240543885402,0.8362172014787564,0.7963412649194291,0.7607272545354195,0.720138460762587,0.683937452867199,0.6459772202441753,0.6106476674299491,0.5742425150672498,0.5362597532157006,0.4957560977652199,0.4632451589637402,MI
0.23321959934883085,0.24413897737547363,0.28448965212989696,0.3232972344137608,0.36414100108896275,0.4042109682571897,0.41941321379858265,0.45591219913323244,0.469540580082924,0.46286687454919107,0.4585012817708314,0.45909053214147666,0.4597122677751002,0.46527865701711435,0.4915992173162642,0.494172581226499,0.4804346046565271,0.4660812790188664,0.452332235680718,0.44076990928134685,0.40123050296394225,0.3500389537227291,0.3033782838832262,0.248161920708605,0.20124850192734867,0.14613130530538898,0.09058527658035676,0.04410495164491879,0.0007345729055203698,0.0,0.043253180694523774,0.09153255667600324,0.1444554406072016,0.20160819059098567,0.25097230397995074,0.30301828604091474,0.35883858245902167,0.4055768183977657,0.46154861813867876,0.5189102967730708,0.5762727854378518,0.6336352741026332,0.6909914173843708,0.7456338909656794,0.7927865921006705,0.8493957430417558,0.899144376736561,0.9507807314151913,0.9999999999999998,0.9833960357940519,0.9346823481962987,0.888723658740701,0.842537720041453,0.7917025153293495,0.7436041512611433,0.701595630898858,0.6726867852790439,0.6725042822611924,0.6887058721209585,0.7145044802207148,0.7433166517779315,0.7730113440370909,0.7961925114300243,0.8116953712076069,0.7928017211899017,0.7716486349799008,0.746362172418612,0.7160703522538328,0.6847685943675004,0.6528360618071194,0.6206755303568883,0.5895296164314046,0.5552585093402798,0.5206968052815897,0.4863405996351593,0.4613881644518336,0.44794431134773904,0.434460907773335,0.41145584586027506,0.38616372007724986,0.3716642920765525,0.36812117986857795,0.3750890081704512,0.39592297556792766,0.41094932188619526,0.4302811122793153,0.4392414460561087,0.45585853418105393,0.4559928264898956,0.4493232051037619,0.45070487357565603,0.4682793506794878,0.47644121556746977,0.48485392521373893,0.4889935042197828,0.47856466557678456,0.4727994902109496,0.4608212674316883,0.431617793668021,0.38294590893381764,0.3356967109460043,0.27956367834060813,0.2323154789727817,0.17780683901029004,0.12179931360605911,0.07572880489506506,0.045999297358057856,0.06714898475589925,0.11562832475839135,0.16395950415073535,0.2210067672372107,0.2769598530931179,0.32367273386285,0.37956446689731416,0.4369259813363573,0.4942884700011383,0.5514967271265967,0.6012919693433212,0.652890940326692,0.7098291306345124,0.7577677308889104,0.8114136032325343,0.8685016962074965,0.9169559752441307,0.9605214842687968,0.9897664963616222,0.9681763014484577,0.9226486837936905,0.8708071821568588,0.8240290223061997,0.7773363117245606,0.7343055162731085,0.6931490641966509,0.6682668120923141,0.6745673801923278,0.6963290155659545,0.7194269756501208,0.750561332448269,0.7781472556003839,0.8142159286656268,0.8369932630353223,0.8316430174703033,0.8084374171392763,0.7798959498896052,0.7528144666318652,0.7290942338614841,0.698270127748448,0.6639760724981547,0.6294143684394646,0.5946727380495409,0.5563888425302868,0.5250844707765856,0.5070982272516231,0.48235747889117575,0.4686126764984413,0.4374398091154992,0.4175169028458561,0.39547897196982595,0.3823889977856656,0.3864000569241226,0.40036907384621556,0.41179654858849335,0.4256598204358999,0.43539121492556654,0.4413243893276271,0.4614167581512716,0.47031670953203464,0.4707351570829166,0.4828418286715024,0.4773375680708629,0.47524029862444617,0.4647052520258945,0.458666708201638,0.43634334625387416,0.3936203679660777,0.34041113608150986,0.29280420459863654,0.23662089166668432,0.18960414368755174,0.1348566942938414,0.08483431639597439,0.06509725617965834,0.09348642669829776,0.14547473927617816,0.19286225676302138,0.2472799680874762,0.3042371205712491,0.3521283911768247,0.40563338482401545,0.45475211346758937,0.5070354518384035,0.560601816115067,0.6086062343394383,0.6655725965370329,0.7199683659987095,0.7673066528322263,0.8241310625679004,0.8790607760192335,0.9260197602168045,0.9793061550035482,0.9779231595043594,0.9310645577212766,0.8845377560588947,0.8286310377120889,0.7800014331586798,0.7309650697361401,0.6929423306664189,0.6727439823931494,0.679599672981728,0.6971093736114449,0.7236320918337344,0.7545066955257804,0.7876223155013944,0.8118490256084756,0.8248931351434308,0.8071238217278152,0.7770199043303039,0.7530886467362115,0.7209643126502756,0.6966444659959106,0.6687521228848421,0.6359332059408904,0.5990029738506426,0.5640516388839394,0.5277479411472747,0.498420957333223,0.47760821253832364,0.4658657066842824,0.45746367076981653,0.43748283929130616,0.41915696832103433,0.40904922423585455,0.40995430833308144,0.42122306137696985,0.4348255223483968,0.4483361789784308,0.44932003692990796,0.45781957419946484,0.48457295949327484,0.5026138498365806,0.5124245190592169,0.5158354984909865,0.5053426810945678,0.503240735054596,0.49669975619291873,0.495091379985775,0.4583833434185858,0.402316283639528,0.354913439276086,0.300646770647901,0.24915220818435735,0.1992637489237925,0.14205028483538906,0.08735536300375801,0.059334348256864455,MI
0.482994607686583,0.4513611526516135,0.4150029849991017,0.3786400535410439,0.3422403142204349,0.2991048324555843,0.2586956490989678,0.2223011523616787,0.18974865654501993,0.1549560531912002,0.11872204466799241,0.08359452853776661,0.061984511995390346,0.038732840453194584,0.04299599666311815,0.05545320695829581,0.07344353130703984,0.0917225861422839,0.11000164097752752,0.1293591034576531,0.1517929174591326,0.16990496901759888,0.18807500798261367,0.21154101128019365,0.22477678131024836,0.24830423757658515,0.27650088322959876,0.312976675160364,0.3468595731754984,0.3882622713780721,0.4308078869569161,0.4801170371066035,0.5257362392808469,0.5722287319020123,0.6249620140277097,0.6656763868176143,0.718595707515759,0.7640132182196138,0.8107167613523991,0.8633264325074879,0.9041057669126862,0.9537920693357811,0.9849302443250569,1.0,0.979960705362874,0.979380183572427,0.9769086782247736,0.9377854969618657,0.8966252068032126,0.8560253865361926,0.8117106017002982,0.7663098073201349,0.7278277761689496,0.6994378295177817,0.6941533610502946,0.6838589723394297,0.6942432952928077,0.6886984339647153,0.683766512593154,0.6948568998092668,0.6948820669174927,0.6878407891592153,0.6943196928520439,0.6812948988429466,0.660170261156519,0.6345060193169179,0.6272060780262922,0.6321093487613689,0.6556099936668054,0.6734397447013434,0.6730261088453551,0.6614155311199417,0.6611478093218808,0.6611478093218808,0.6611478093218808,0.6611478093218808,0.6611478093218808,0.6605578543040385,0.6477115776490079,0.6517695424069565,0.6593205164705482,0.6454853041861224,0.6441595713369601,0.6441445305948039,0.6394690454313228,0.6275276472767404,0.6271329076629746,0.6194524054888317,0.6102651829052737,0.6101830953671192,0.6101816940482521,0.6078925371325883,0.5853449458123468,0.5612073210665787,0.5392620647841304,0.507998323432008,0.48193353999168576,0.4465721750189515,0.4089454112134421,0.36263483890038595,0.32582921364256734,0.28953395010249716,0.25331740230376054,0.2171008545050248,0.18088555194605682,0.14636855433046714,0.11835681644154539,0.08301296117168233,0.048168483221125324,0.025642533399088396,0.0,0.0003584765043358473,0.02090351889237363,0.03310611552667986,0.0474197331634052,0.06904583800505648,0.08508585170724947,0.10170494889440551,0.11986847452965232,0.14418261530254473,0.16764866052558736,0.18985503757012046,0.21227087562262037,0.24728249674894398,0.283644854785964,0.3200281638609588,0.35857403957083767,0.40856011364832945,0.4498435819790143,0.502393439673142,0.5428786163666399,0.5953797706810309,0.6422248458509423,0.687559966477151,0.7408563126572436,0.7813108873180692,0.8338763749222675,0.8802502133243353,0.9110302782523831,0.9456301178646727,0.9723332294524925,0.9794641706206546,0.9523167153513907,0.9329212793297703,0.9131088314694957,0.8744492413235743,0.8341539993802964,0.792909513512098,0.7468928475764183,0.7065104021277153,0.6657180476376912,0.6639716785390557,0.6771997610458094,0.6781358810486307,0.678156834605824,0.6845753702733393,0.6935837165879595,0.6801735251174668,0.6760711147839125,0.6614463034841003,0.6464807813138411,0.6281589537498484,0.6010043468276178,0.5977589129897156,0.6173597143209673,0.6493297702475278,0.6609659164774628,0.6611478093218808,0.6611478093218808,0.6611478093218808,0.6611478093218808,0.6611466930170198,0.6592417955800687,0.6452130667799949,0.6441595713369601,0.6441595713369601,0.6441595713369601,0.6441243813009261,0.6369346716485946,0.6272641241065502,0.6271713333520399,0.6271713333520399,0.6271713333520399,0.6271713333520399,0.6271713333520399,0.6271487917778567,0.6215531681003359,0.6037845145123,0.584906630123962,0.5584827067507585,0.5312343685043066,0.5024778732512281,0.46613279023991216,0.41936410648950284,0.3821071681182642,0.3457442366602068,0.3093813052021481,0.2730528981920437,0.2368367948794381,0.20163424519392548,0.16996273268494422,0.13776487454520803,0.10323720447843865,0.0749584460387398,0.04166006386314525,0.018590551871958017,0.030063482941328434,0.03792191671950684,0.05162663704142023,0.07314721671861957,0.09242845124069099,0.11070793698996928,0.13029847591358523,0.15677885240101386,0.17694589315295506,0.2001561147353801,0.2218870369343855,0.2422384644617268,0.2685272115314654,0.3077047070799135,0.335701795163196,0.3817498585333876,0.42401807165462113,0.46620612762116354,0.5160071348046555,0.5609934919853439,0.6081209149590618,0.6621699113889026,0.7045317230977752,0.754596099929171,0.8080560400826338,0.8485475122626984,0.9010806193534364,0.9525332894461038,0.984140022646891,0.9983436180554595,0.9848851144712834,0.9828681827995798,0.9631719611990155,0.9219615878820422,0.8787246840750296,0.8320986643042589,0.7867638468349547,0.7389946416251432,0.7287977856094723,0.716633122308362,0.7121178299660116,0.712115576998146,0.7154950369300264,0.7284484666199531,0.7290381051568051,0.7200069319614228,0.6981248601991208,0.6934838056284831,0.6744439079365239,MI
0.482994607686583,0.4513611526516135,0.4150029849991017,0.3786400535410439,0.3422403142204349,0.2991048324555843,0.2586956490989678,0.2223011523616787,0.18974865654501993,0.1549560531912002,0.11872204466799241,0.08359452853776661,0.061984511995390346,0.038732840453194584,0.04299599666311815,0.05545320695829581,0.07344353130703984,0.0917225861422839,0.11000164097752752,0.1293591034576531,0.1517929174591326,0.16990496901759888,0.18807500798261367,0.21154101128019365,0.22477678131024836,0.24830423757658515,0.27650088322959876,0.312976675160364,0.3468595731754984,0.3882622713780721,0.4308078869569161,0.4801170371066035,0.5257362392808469,0.5722287319020123,0.6249620140277097,0.6656763868176143,0.718595707515759,0.7640132182196138,0.8107167613523991,0.8633264325074879,0.9041057669126862,0.9537920693357811,0.9849302443250569,1.0,0.979960705362874,0.979380183572427,0.9769086782247736,0.9377854969618657,0.8966252068032126,0.8560253865361926,0.8117106017002982,0.7663098073201349,0.7278277761689496,0.6994378295177817,0.6941533610502946,0.6838589723394297,0.6942432952928077,0.6886984339647153,0.683766512593154,0.6948568998092668,0.6948820669174927,0.6878407891592153,0.6943196928520439,0.6812948988429466,0.660170261156519,0.6345060193169179,0.6272060780262922,0.6321093487613689,0.6556099936668054,0.6734397447013434,0.6730261088453551,0.6614155311199417,0.6611478093218808,0.6611478093218808,0.6611478093218808,0.6611478093218808,0.6611478093218808,0.6605578543040385,0.6477115776490079,0.6517695424069565,0.6593205164705482,0.6454853041861224,0.6441595713369601,0.6441445305948039,0.6394690454313228,0.6275276472767404,0.6271329076629746,0.6194524054888317,0.6102651829052737,0.6101830953671192,0.6101816940482521,0.6078925371325883,0.5853449458123468,0.5612073210665787,0.5392620647841304,0.507998323432008,0.48193353999168576,0.4465721750189515,0.4089454112134421,0.36263483890038595,0.32582921364256734,0.28953395010249716,0.25331740230376054,0.2171008545050248,0.18088555194605682,0.14636855433046714,0.11835681644154539,0.08301296117168233,0.048168483221125324,0.025642533399088396,0.0,0.0003584765043358473,0.02090351889237363,0.03310611552667986,0.0474197331634052,0.06904583800505648,0.08508585170724947,0.10170494889440551,0.11986847452965232,0.14418261530254473,0.16764866052558736,0.18985503757012046,0.21227087562262037,0.24728249674894398,0.283644854785964,0.3200281638609588,0.35857403957083767,0.40856011364832945,0.4498435819790143,0.502393439673142,0.5428786163666399,0.5953797706810309,0.6422248458509423,0.687559966477151,0.7408563126572436,0.7813108873180692,0.8338763749222675,0.8802502133243353,0.9110302782523831,0.9456301178646727,0.9723332294524925,0.9794641706206546,0.9523167153513907,0.9329212793297703,0.9131088314694957,0.8744492413235743,0.8341539993802964,0.792909513512098,0.7468928475764183,0.7065104021277153,0.6657180476376912,0.6639716785390557,0.6771997610458094,0.6781358810486307,0.678156834605824,0.6845753702733393,0.6935837165879595,0.6801735251174668,0.6760711147839125,0.6614463034841003,0.6464807813138411,0.6281589537498484,0.6010043468276178,0.5977589129897156,0.6173597143209673,0.6493297702475278,0.6609659164774628,0.6611478093218808,0.6611478093218808,0.6611478093218808,0.6611478093218808,0.6611466930170198,0.6592417955800687,0.6452130667799949,0.6441595713369601,0.6441595713369601,0.6441595713369601,0.6441243813009261,0.6369346716485946,0.6272641241065502,0.6271713333520399,0.6271713333520399,0.6271713333520399,0.6271713333520399,0.6271713333520399,0.6271487917778567,0.6215531681003359,0.6037845145123,0.584906630123962,0.5584827067507585,0.5312343685043066,0.5024778732512281,0.46613279023991216,0.41936410648950284,0.3821071681182642,0.3457442366602068,0.3093813052021481,0.2730528981920437,0.2368367948794381,0.20163424519392548,0.16996273268494422,0.13776487454520803,0.10323720447843865,0.0749584460387398,0.04166006386314525,0.018590551871958017,0.030063482941328434,0.03792191671950684,0.05162663704142023,0.07314721671861957,0.09242845124069099,0.11070793698996928,0.13029847591358523,0.15677885240101386,0.17694589315295506,0.2001561147353801,0.2218870369343855,0.2422384644617268,0.2685272115314654,0.3077047070799135,0.335701795163196,0.3817498585333876,0.42401807165462113,0.46620612762116354,0.5160071348046555,0.5609934919853439,0.6081209149590618,0.6621699113889026,0.7045317230977752,0.754596099929171,0.8080560400826338,0.8485475122626984,0.9010806193534364,0.9525332894461038,0.984140022646891,0.9983436180554595,0.9848851144712834,0.9828681827995798,0.9631719611990155,0.9219615878820422,0.8787246840750296,0.8320986643042589,0.7867638468349547,0.7389946416251432,0.7287977856094723,0.716633122308362,0.7121178299660116,0.712115576998146,0.7154950369300264,0.7284484666199531,0.7290381051568051,0.7200069319614228,0.6981248601991208,0.6934838056284831,0.6744439079365239,MI
0.6628695065321033,0.6707896981540515,0.6748207034544036,0.6798475557083754,0.6806277555731359,0.6806292820187279,0.6814209083459759,0.6864045468910434,0.6878540020277062,0.6896364032714188,0.6916779994219608,0.693356405212395,0.6908397093332461,0.692419715019847,0.6933870051040294,0.6933887888928043,0.6933849399473415,0.6917862983948133,0.6826094267241083,0.6717737203304623,0.6693687870440541,0.6695949504586052,0.6700331157163741,0.6836310167271875,0.6973774199063674,0.7049249079362867,0.7061463983809817,0.7056669513783151,0.6946923912764054,0.6681289587535428,0.6409353612367672,0.6185759846492207,0.598956704648723,0.5707739791718396,0.5417747781374302,0.5168356686596136,0.4897729616528173,0.4606589979247762,0.43153493442031093,0.40241087091584554,0.37328680741138004,0.3441891520440639,0.31796399029268557,0.2922413012590976,0.263170825037538,0.23404676153307274,0.20492269802860735,0.17579863452414196,0.14667457101967663,0.11781203750256702,0.09332180061901346,0.06567704101076866,0.03660094401489228,0.011116359407098542,0.0,0.017520001045379263,0.04314230973925848,0.06924135696983358,0.09833463056381114,0.12745869406827648,0.15658275757274187,0.1857068210772072,0.2148308845816726,0.243954948086138,0.2730790115906037,0.302203075095069,0.3313271385995344,0.36045112318786315,0.3892790955043342,0.4137082000336951,0.44144644162294205,0.4705671844778417,0.4996912479823071,0.5288153114867724,0.5579393749912378,0.5870634384957032,0.6161875020001686,0.645311565504634,0.6744356290090991,0.7035596925135645,0.7326837560180299,0.7618078195224953,0.7909318830269607,0.8200559465314261,0.8491795558604593,0.8777357253392484,0.8960606141571437,0.8801242521708086,0.8518804053360352,0.8277589976478523,0.8000998853162908,0.7765320722363402,0.7566224112823303,0.7436849912652022,0.7383773915740983,0.741407852837596,0.7444587254934982,0.7481141795898643,0.7550905676463102,0.7595273300133947,0.7606760146072988,0.7502058521611579,0.7358621742052458,0.7198952050753098,0.7033080696810214,0.6836877331755662,0.6638657089179225,0.6444473180438042,0.625013989876932,0.6044133045642655,0.5887014082684898,0.5895476785726568,0.6032022530769432,0.6177701590484315,0.6335296233145744,0.652120355633462,0.6651785008147266,0.6742643509278388,0.680210168208053,0.6873691887334943,0.6931248987938772,0.6934633456947108,0.6970884311981032,0.6997467683949086,0.6997690605368239,0.6997690605368239,0.6997690605368239,0.6997665083176534,0.6985923036760584,0.6937626886870609,0.6920661198272948,0.6872243019584514,0.681278043023676,0.6672926623852953,0.6563571897042775,0.6523849141935567,0.6404416413161835,0.6380674356494835,0.6523033932751845,0.6687249509313404,0.6741961657908768,0.6742477665240438,0.6737988774702888,0.6630540534103437,0.6365949635811792,0.6083567189503243,0.5841878139007608,0.5556120158598146,0.5264883888871887,0.497364797376379,0.4689970214503057,0.44487200845508573,0.4163717053276292,0.38724834300888183,0.3581242795044161,0.32900021599995116,0.29987615249548544,0.27082309495271367,0.24525401891702198,0.21885359128124643,0.18976017012164342,0.16063610661717842,0.1315120431127127,0.10249690356107743,0.07744849129870723,0.055723662286343234,0.05300214825610183,0.07637201737622118,0.10546552240124468,0.13458958590570969,0.16371364941017547,0.1928377129146404,0.22196177641910614,0.2510858399235712,0.2802099034280369,0.30933396693250187,0.3384580304369676,0.3675820939414333,0.3967061574458984,0.4258302209503641,0.45495428445482905,0.4840783479592948,0.5132024114637597,0.5423264749682255,0.5714505384726905,0.6004772644998679,0.6258032787351098,0.6524614566877953,0.6815665208465325,0.7106905843509981,0.7398146478554632,0.7689387113599289,0.7980627748643938,0.8271868383688594,0.8563109018733246,0.8854349653777902,0.9145590288822554,0.943683092386721,0.9728057575717777,1.0,0.9964752991140633,0.9730387604114197,0.9461934986662031,0.9282009957658326,0.9050991345115171,0.8764920574465853,0.8520539483584506,0.8246587337260562,0.8008959840517731,0.7805454060736097,0.770487568007374,0.76996282206989,0.7721167246800782,0.7790644714352948,0.7826484801275904,0.7827033717430536,0.7803770335556097,0.7683771291232924,0.7542777408983825,0.7370690559908439,0.7210709952708501,0.7045066726029008,0.688054017311474,0.6719796677012122,0.6520869635860453,0.6292571609484692,0.6098328277750977,0.5984419381154633,0.6003450358429245,0.6132757781143696,0.6340854628162378,0.6541837942897746,0.6694415509133123,0.6833052669303921,0.6921729850683227,0.6955021767864442,0.6996486462836495,0.6997690605368239,0.6997690605368239,0.6997691559877699,0.7001089227030362,0.7028135345782263,0.6999129637904369,0.6997690575304947,0.6994722201341363,0.6947733083634902,0.6930575960135603,0.6882827468035893,0.6870117718539475,0.6870085172487848,0.6870085172487848,0.6870056014125328,0.685283082789919,0.6720990813032435,0.6628709075603827,MI
0.8788619201442349,0.8872675694909464,0.8959098321351093,0.9115306979775846,0.9257430558419038,0.9478922571323811,0.9639478275521847,0.9719816766278746,0.9816356365096817,0.9832319186750622,0.9728230582317792,0.9654348222101226,0.9655835356289324,0.9625494444061509,0.9534041177460926,0.9406393653888705,0.9257963753480369,0.8932647955755211,0.8561475117822512,0.8204733671474651,0.7807629321772105,0.7426468069053989,0.7077214316171327,0.6681765790614491,0.6283207336027941,0.5886170654161487,0.5531242969225394,0.515721388172294,0.4758869003785768,0.4360309763526799,0.39617505232678335,0.35650988956432644,0.3212124255808147,0.28364913549199383,0.24901171257566407,0.21781434972182862,0.1863659375750732,0.15305655838101873,0.12353848167220083,0.09104049367169648,0.05362837895715733,0.021551494279040406,0.025241208590363495,0.060296036422004484,0.09783687181492207,0.13317798598251046,0.172855786137663,0.21271171016356,0.25247175287641105,0.2884136641217436,0.32532699457623576,0.3651455433877772,0.4050014674136739,0.44485739143957054,0.48466993821732124,0.5214756246390357,0.5575269896909179,0.5972912246637878,0.6371471486896845,0.6770030727155811,0.7168589967414782,0.7567149207673747,0.7965708447932711,0.836426768819168,0.8762775642662906,0.913012311811934,0.9153146237696073,0.9089032084348674,0.9146465811924691,0.9179595312238729,0.9057389358695098,0.89052735475877,0.8686493342838433,0.8454069553820924,0.8222110976932222,0.7982759889750033,0.7732830154736652,0.75040029727351,0.7283820891031592,0.7139458821417348,0.7181789068136628,0.7424880211936553,0.7709366904325103,0.797387313557014,0.8204815004964965,0.839087193815397,0.8477292663867653,0.8512692608815577,0.848249232840592,0.8517850575157195,0.8536074552753719,0.8599799944292648,0.8666373545264388,0.8733293229892296,0.8816117333639424,0.8853366154158442,0.8852011516941036,0.8813256775097376,0.8705816530608002,0.8637161783247003,0.8729178517927516,0.8821389111414402,0.8882261962282545,0.8868925557450789,0.8837103142782738,0.8727009544072843,0.8403702078632747,0.8012298698683293,0.7613748293536213,0.7215189053277244,0.6816633347015604,0.6423459161813498,0.607757756588434,0.5690816932138083,0.5292291480776106,0.4893732240517134,0.4495636296733389,0.4129064751768257,0.37671758044144216,0.33693939082749663,0.29708346680159964,0.2572275427757033,0.21737223628221175,0.17825623042798938,0.14372299792711307,0.10479233391842618,0.06494085020733392,0.026473229956251176,0.0,0.00851693703889167,0.04186357536031671,0.07966960372546833,0.11951353843862933,0.15936388460548967,0.19770489395190127,0.23247371400509104,0.27194748538663643,0.31180329568874315,0.35153604564192004,0.38729954503310754,0.42441163269637655,0.4642371289129607,0.5040845118553319,0.5413905250179496,0.5710323720242658,0.6096800581937927,0.6481042957147733,0.6774330697505873,0.7107218165693978,0.7481531292035213,0.787991130749182,0.8278428853613848,0.8655051839557266,0.8801655152943375,0.8896848449151447,0.8988348631336025,0.8935051957760869,0.8811998491919752,0.8638820186135858,0.841286299779612,0.8165061014786434,0.7924146011541515,0.7663890001674227,0.740835877331605,0.7176296484126372,0.6935087333951884,0.6793814993947784,0.6868655880629757,0.7088541040535037,0.7373105788580465,0.7673278629765621,0.792469358557027,0.8148093500007356,0.8273926052418867,0.8222605625989001,0.8162111900961695,0.8106761684851109,0.8100441611569515,0.8101714841731673,0.8127806526143078,0.8129665148301937,0.815572713229231,0.8248403096901207,0.8301476251931201,0.8253233595459191,0.8205454927223532,0.8291711665162191,0.8431742767209576,0.8651765895917121,0.8809732202234697,0.8896104476429483,0.8993192018193035,0.9083270612309682,0.8829812513790591,0.8488200586544687,0.8098106143621873,0.7708108565232441,0.7363042268015458,0.6972315106734739,0.6573766598789557,0.6178679806849376,0.5830102676322,0.5447923393573775,0.5049428009751717,0.46508687694927636,0.4253133240092944,0.38917324492488087,0.3524603047853006,0.3126530437250579,0.2727971196991625,0.23294119567326538,0.1931905141071028,0.15726414968364522,0.12032813925971964,0.08136387473425472,0.06037142428765063,0.0840105726366191,0.11831850876489142,0.1570420330665046,0.1968954321972991,0.23672815885741078,0.274037572842109,0.30961627926776064,0.3493292654215175,0.3891851894474145,0.4290279225484676,0.4668672241072384,0.502001493158567,0.5416190226716313,0.5814749466975284,0.6213308707234237,0.6611867947493208,0.701042718775218,0.7408153824117694,0.7769046652108174,0.8136634067251489,0.8534765519994347,0.8933106395355144,0.9303649801437717,0.950051330722101,0.9552362451588574,0.9738167042341443,0.9906239435765078,1.0,0.9900017940352963,0.9749120993983365,0.951598954036573,0.9269071350814198,0.9037617094393766,0.8768858779823465,0.8552723304441752,0.8410003707060452,0.839767808908807,0.8543732231901395,0.874991392879251,MI
0.22108132203078523,0.15924627755337295,0.0956887388384271,0.03945633207017796,0.01218854749154108,0.054143470740708244,0.12023534780347767,0.18623742071690286,0.24405000976642577,0.3080026671765377,0.37462275173532467,0.4332925987798175,0.4260313006056562,0.43634195376309437,0.4825715179186143,0.5368889442436615,0.5935287148081578,0.6585411000180221,0.7251818379670996,0.7918252223300015,0.8584686066929035,0.9250584010325535,0.9824538371319436,0.969238955332169,0.9138392097819856,0.8532390518919344,0.7987534583356657,0.7580436799996411,0.7227517871191236,0.7032488279612077,0.6882657696869725,0.6725116161200744,0.6475243546553802,0.6142774595585625,0.5762023209367402,0.5369248385392047,0.48957174015698146,0.4434514984107454,0.38917405189014054,0.3399220714883935,0.29418759240391945,0.24753069967515362,0.20813561393576663,0.19510820314145882,0.22638176684332967,0.27310537578662686,0.3273529357309388,0.38064956131539907,0.430994507204457,0.48586040508992334,0.5356271937275496,0.5803068569279017,0.617268369446194,0.6275092145603414,0.6195896863232162,0.6142468935853393,0.6119409827425237,0.6181609041030873,0.6303098021925628,0.6398789531908669,0.645769450400391,0.6289791475015016,0.6012223407342043,0.5750048492745545,0.5633745894325888,0.5960443102713511,0.6330723608565707,0.6587306891655669,0.6847159138665886,0.6986307495340272,0.7068962088123236,0.6788418769978775,0.6241223055713905,0.5589536023676624,0.4932007286950939,0.43569780096642274,0.3711928326942031,0.30474324801382147,0.2451491474935532,0.18339977602758206,0.11991932262438287,0.06435609847689205,0.025995977179722685,0.04648746982290586,0.1082216090424577,0.17420102904948598,0.2320040490225861,0.2959723245680177,0.36260554553426183,0.42924892989716423,0.49578123671826946,0.5562108525381535,0.6170905610752713,0.6836490697753195,0.7502924541382219,0.8169357965400652,0.8832810813876815,0.9421595830662446,1.0000000000000002,0.9911084327093318,0.9265002598047156,0.8647859528542912,0.8095508008277161,0.7632063968794436,0.7269864267036559,0.7045465646829545,0.691031418085241,0.6702585911984211,0.6504606729851135,0.6223203622022571,0.5828981948937775,0.5445140970382669,0.5010283463784102,0.4583340450189928,0.40926059002621584,0.3612834728300385,0.31498850920803356,0.2606087872647247,0.21485581448696878,0.19204581496855,0.2087200119768826,0.2519867050069675,0.3059089601018605,0.3652943313547934,0.41895422045800523,0.4718317660742659,0.5219848035999093,0.5686036579704121,0.6072627974246219,0.6268426778209495,0.6267127216683075,0.6173590045079191,0.6162032575485872,0.6246285337787416,0.6388484034754807,0.6552437302232905,0.6628376700300433,0.64151215454966,0.6027750083964118,0.5737909532825898,0.578415839476373,0.6105185280759866,0.6499855886893153,0.6818959015267378,0.7086190372241317,0.7129906342268455,0.6984720213172364,0.6514488020772775,0.5938918016751842,0.5337182137054157,0.46916069708039876,0.4117453272924061,0.34608698131957993,0.2796423471045506,0.22016441928215724,0.1586354293562222,0.10522619265576649,0.057592304613425016,0.006633841606941804,0.0,0.04940038270359648,0.11474633918178756,0.1804069478256809,0.23782366424159207,0.30250577568644554,0.3691457630541164,0.4357891474170188,0.5024130206197441,0.5657163669032539,0.6239897037773319,0.6901893383782027,0.7568326716580767,0.8234759426479312,0.8896000304917886,0.9476510022144129,0.9967475830645844,0.9659637045851455,0.9091541415750319,0.8544477857221062,0.8014692104274175,0.75918031029204,0.7281595504792528,0.7082281102052661,0.691663484458976,0.6753824432276525,0.6519820307038129,0.6214358381035989,0.5858342438017465,0.5438781072697332,0.4931770588087345,0.44514198455602094,0.39602487844350853,0.3504127900584739,0.30317657614155546,0.2654207749037871,0.236791362125641,0.24891805983737147,0.2915394321978251,0.34212847923904866,0.39541622021422596,0.4470254362341137,0.4970117418913227,0.5468971758486951,0.5944050205317097,0.6334836569508422,0.6400387883968299,0.6335213916880016,0.6271775799537456,0.621296357330712,0.6339229137187634,0.6419025940147385,0.6521717507740601,0.6576340698410921,0.6545535444416812,0.6228608025669331,0.5936126801087227,0.5653078358942702,0.5741498290035738,0.6114108186447109,0.6383161052721291,0.6648151301943559,0.6890594848102791,0.698473552809064,0.6782311371768304,0.624498971170661,0.5677341412490713,0.5049966135171589,0.4475643108747962,0.38188237714961404,0.319623067244692,0.2604707778852098,0.19414800733197257,0.13274153455677395,0.07300686821827296,0.016749504270225035,0.00341730078790059,0.04946210167341558,0.11394055964257754,0.17124838649802698,0.23662442524917626,0.30326591633254396,0.3692494020368011,0.42703328385705586,0.4910327956731275,0.5576663395935868,0.6243097239564892,0.6909531083193914,0.7575964340410624,0.823912780953852,0.8825589054656267,0.9344601532507777,0.9066068408171561,0.8497773191553646,0.79141508372646,0.7520347489085719,MI
0.11850915360501668,0.14861963789443644,0.17952142167856577,0.2111761370874895,0.24363141294782997,0.2745201550711951,0.30784326338910306,0.34081864650684557,0.37224703128976255,0.40184359439475814,0.4312875440745807,0.4595440327110073,0.48718796281036303,0.5140906146963267,0.5378905341803126,0.5623731501371234,0.5856000157328412,0.6100327711853377,0.6385457728381044,0.6692227442520337,0.7016162742329743,0.7364656206172516,0.7693706406512119,0.8051836121786197,0.8376211126826395,0.8735477070910403,0.9062303998097837,0.9417552487682982,0.9774049042787941,1.0,0.9856164916363442,0.9519731843373377,0.9207082843752749,0.8984628796422184,0.8936348304179184,0.8898251244146925,0.8819249412929068,0.8719379512686533,0.8551848886043777,0.8605767279057149,0.8707595066158335,0.8724934291905443,0.8686466975621107,0.8650670954761804,0.8612149132878363,0.8610252902943271,0.8610356729207421,0.8627746079642603,0.8695697956962066,0.8740819315195129,0.8614209063766539,0.8419071123497667,0.8155714581502626,0.7860452331890052,0.7554688315730992,0.7246519732995171,0.6903949283771621,0.6539841817912054,0.6215149204564311,0.5891560117192548,0.5550387758676646,0.5224716078749653,0.4873844660745301,0.45497040840248415,0.4211497339699545,0.3880611501812846,0.35542053219949565,0.32046693736425436,0.2879331761675795,0.25330745653706677,0.22093806515042497,0.1883256445465767,0.1550482174680981,0.12245047713292984,0.0902944471052472,0.05918219044917433,0.028397696881197976,0.0,0.012943953857274648,0.043332869821293696,0.07406143518139519,0.10517395872813362,0.13685393994181821,0.16916552261808843,0.20077443864631656,0.2316130915348379,0.2640321247150146,0.29569702809962917,0.3281252577419529,0.3628188490758304,0.39209343466235624,0.4219501384085028,0.4498932717380003,0.47870458895084145,0.5058422063702774,0.5309485846412738,0.5547178392902904,0.5793103731416405,0.6015796693842513,0.6273941275743715,0.6585647098312023,0.6907807977222552,0.7252592181349377,0.7581539853605118,0.7917915177692995,0.8259161690931779,0.8608227982986069,0.8939335239702678,0.9306157367953233,0.9662814626232413,0.9949304058028657,0.9954086334191049,0.9637544148020324,0.9339359872100393,0.9073598992657305,0.8950422915531685,0.8899583472398905,0.8816093954695233,0.8711975771991828,0.8561189992963202,0.8587357202251918,0.870472210908572,0.8688176356592371,0.8668836175513673,0.866865033965497,0.8660430460416203,0.861641400656543,0.8615099612328679,0.8665031269448463,0.8722261397556749,0.8740037218742388,0.860976365899888,0.8392762880733419,0.8131073987813443,0.7837360735477069,0.7524268769436705,0.7208879514096636,0.6891657264128889,0.6568622846439736,0.6220025508928049,0.5879416654985741,0.5613680014782854,0.5290602244045456,0.49637280509275983,0.4623853446285636,0.4297340018778687,0.39494671492192623,0.3620042608883651,0.32756906762695237,0.2944662938543685,0.2618398077094938,0.22785674513817494,0.19525187132420824,0.16493706780726508,0.13931174487309628,0.10810532844881887,0.07657213583060873,0.045006640873487436,0.015803787468804897,0.018323166207079522,0.04693631760763867,0.07834587366883289,0.11054287512245631,0.1418177287709928,0.17306272616378005,0.20459784924844354,0.23628259621253822,0.26849948633418275,0.29924265050889387,0.32927877525785254,0.3533167519427285,0.38424437146538903,0.41584390872357824,0.4460128618755558,0.4744944397056935,0.5010923042568384,0.5277755067792164,0.5512288835150511,0.5728868440738182,0.5976499979397104,0.6234176280448578,0.6528677683628068,0.6850470523095898,0.7182252589858975,0.7527383058339746,0.788062666036191,0.8208061323197798,0.8546241208825828,0.8885313977082266,0.925047192952711,0.9578049836281782,0.9899840839135451,0.9901889678170327,0.9595973928934397,0.9274220413277433,0.9015822297054593,0.8954614184964428,0.8978804054487081,0.8911051745277104,0.8807788889916649,0.8658409270790054,0.8539201791635768,0.8643151194720088,0.8717117666715474,0.8692599390830597,0.8640733274433331,0.8588701607162216,0.8553078155322543,0.855707330166701,0.8604239228302158,0.8655261137903524,0.8655458865666249,0.8540735479442353,0.8302563962127983,0.8025862174979391,0.7734646266033004,0.7428128930727339,0.7111990251184185,0.6795867132253526,0.6519270499375615,0.6439509964326859,0.6358064137479861,0.6297997688727622,0.6134121746749563,0.5983989171185983,0.5668345691205534,0.5511107321134177,0.5476541809436398,0.5306673224696961,0.5051215361760738,0.47158243373738884,0.4382852913071251,0.40576265653235444,0.3701022224074221,0.3333141322877673,0.2994441947242723,0.2658812858961225,0.23362887951498812,0.20132416064994507,0.16744281806597688,0.13529519238647786,0.10330158143278234,0.07184250703453487,0.040948450118652224,0.01114411983840019,0.009608586688807652,0.038051456978981824,0.06819106651020373,0.10295735180058968,0.135508543997428,0.16786555032227385,0.1995309097423837,0.2311740034272336,0.2627966214952878,0.29245211709819996,MI
0.6721782778250274,0.6839479141741123,0.6871744747270048,0.6865605515915976,0.6806477261218933,0.6510877547490925,0.6419928193141078,0.6704997815161655,0.7035310380075563,0.7278071270093525,0.7380228800187976,0.693747416431234,0.6340530036892997,0.5746300097562342,0.5199426129232485,0.4637229203420965,0.40892304846217997,0.35039921210886926,0.2959891391696279,0.237464267525616,0.185569879277676,0.17797383324392813,0.2284371552985528,0.2833271811454199,0.3428560152553789,0.4027256778399726,0.46259543956941185,0.5221997245620833,0.5773286008883047,0.6348560423931633,0.6947030428441276,0.7545728569949794,0.8144423724267336,0.8737224321161472,0.9241583602982333,0.9751123269096278,0.9826451683739572,0.9286192923697933,0.8692203878057068,0.8145374279807458,0.7577232363056863,0.7032769386640998,0.6475802516550704,0.6030614331125639,0.5649484244555529,0.5315011528451181,0.49220511950709045,0.4484381378907458,0.4040148128727017,0.35798260338225374,0.31017597452529877,0.2612803893546669,0.21142164981730804,0.16205423705880162,0.11016162082163528,0.059706337331567716,0.023419639148558935,0.02965602659245914,0.0722177847805523,0.12427008367925418,0.17924786665822579,0.2323045105791428,0.2833755103350366,0.337307891766085,0.39058116375592844,0.4429986891007649,0.49445274058077193,0.5454488822511736,0.5946298039493303,0.6375136686942742,0.6656291862340344,0.6679146977554167,0.6740463630768545,0.6884837646290858,0.7006118438788962,0.7136613608049287,0.7218178764531928,0.6971706803517861,0.6957964921977879,0.7191599971468527,0.7346351222089651,0.7375167155521853,0.6905680164013908,0.6361799879830594,0.5811030492401879,0.5356404758797275,0.48035653509634413,0.4259808829057168,0.3669381228184616,0.3096711289947215,0.25432116191218335,0.19476167328673688,0.13881410895321622,0.09981753923200642,0.1266944108242012,0.18533373532177022,0.24520244398773017,0.30505091336272305,0.36268439999451374,0.41773737031476954,0.47731007689194005,0.5371798089918853,0.5970496231427374,0.6569194372935894,0.7167470139023298,0.7737608714002329,0.8293314694735723,0.8890269881468928,0.9488666131437202,1.0,0.9800982827820754,0.9213146751608774,0.8638940076874757,0.8088212147704479,0.7533575015703529,0.6992997949054724,0.6474088072144353,0.6030810658677488,0.5648243055809885,0.528694254578391,0.4914094984530506,0.4506198257279579,0.40550126972403033,0.3579617459479586,0.30696472288961363,0.2564194610727568,0.2065266572476141,0.1566322944758638,0.10706853962720353,0.05934758534280238,0.023478315940249628,0.035141232564699365,0.08133702426732714,0.13048954079940456,0.18204906873617388,0.23502616125608178,0.2870884669389784,0.3392090137147651,0.3922394585635791,0.44486622711906465,0.49660627486445086,0.5507352091509008,0.6028778104052803,0.646688217768943,0.6742338858994887,0.6814384391563837,0.6891741193935079,0.7054862503961497,0.7169260924871281,0.7156021844353078,0.6955438657608142,0.6774197224194789,0.7002944006427241,0.7254776858871381,0.7475987049038024,0.7583314741657252,0.7170753636531884,0.6590899384700564,0.6036139155746028,0.5487708723338884,0.4939879955913833,0.4390086768177852,0.3816829186179853,0.3244658539712514,0.2759360026683033,0.28331957230893756,0.33749329567575037,0.3972908516398945,0.45712695964401795,0.5143080589930848,0.5697268051674365,0.6293984024931976,0.6892682166440505,0.7491380307949016,0.8090073626647767,0.8675944892969676,0.8884565261258353,0.8399882087773236,0.7834399094242022,0.7288216947930781,0.6759042879216866,0.6273728499135693,0.5863660860960913,0.5507037886580635,0.5135894082827936,0.4735993400640339,0.43098724089977036,0.38478526865726326,0.33202249464823796,0.2828954208608211,0.2324572515693205,0.18255310705882544,0.1322508371779093,0.0816265937309828,0.033764877455596976,0.0,0.015784956783438275,0.060789637687449716,0.11123455039128294,0.16222822530511316,0.21546247287088982,0.2695100391355316,0.32281131837570276,0.3760412592545864,0.4286140511296199,0.4831536689255822,0.5384525301974479,0.5878465492189171,0.6328499723722101,0.6596913607985204,0.6684885754587688,0.6820755896503303,0.6939644558172329,0.7019370873579194,0.6831819767958869,0.6767715937372247,0.7014478793531866,0.7159260252970054,0.7316055120783838,0.7070999633998061,0.6536165610722446,0.5944901186764813,0.5404646156745336,0.49328867315042024,0.44123755789455865,0.3843713352590892,0.3290849741001103,0.2717963685246194,0.2119899698586052,0.15473598637378028,0.09948783417242002,0.05034881913162781,0.06129749158222941,0.11319617183128372,0.16110834906791516,0.2059543803284467,0.2601951686373477,0.31996021288879395,0.37983002703964663,0.43969984119049776,0.4995649776014097,0.5581953492060618,0.6126388453958138,0.6718085047083222,0.7316772061946522,0.7915470203455053,0.8514144098802487,0.9085105372716322,0.9151984622277585,0.8637833954502072,0.8040936479487086,0.7446519491351182,0.6904053771926775,0.6399473704734377,0.6000815484286035,MI
0.5998224758091744,0.574236730564567,0.5686808208420773,0.5814872814255869,0.5856622890942029,0.5810274983721864,0.5741297075261242,0.5713656581584459,0.577113851054013,0.572687992032715,0.56998739351848,0.5701191158233216,0.5805884807812804,0.6070653450762276,0.6372220608991555,0.6632418239141111,0.682413895781719,0.6776310753867993,0.6510447555562215,0.6252674247961485,0.5924305599251671,0.5595593894771493,0.5286235175255383,0.5003028092480613,0.47637968762531857,0.4565925001341491,0.44356004251088854,0.4429876117054903,0.4378162968236925,0.41800319472092085,0.39024148806442316,0.35495622570894203,0.31694227429084054,0.28010693765739236,0.2389758224828462,0.2027529558431228,0.1612965013219061,0.12077001598664061,0.08417163019697482,0.04368137902741365,0.009900752760264364,0.012576830767297764,0.04779743873124165,0.08903578318204741,0.12517201389639043,0.16162077527953522,0.20092855870108672,0.24324331776663222,0.28557095933876986,0.32533917125154477,0.362538965239535,0.40469157678829304,0.4469395551801112,0.4849199099320518,0.5238388626114854,0.5661397687314165,0.6083490177247599,0.6458998269341263,0.6852710762476475,0.7275879942138088,0.7699292710228907,0.8107715597870242,0.8471875798975645,0.889035813272534,0.9306469485189963,0.9668409350944946,1.0000000000000002,0.9958381159751928,0.9634728650809408,0.9246989385720172,0.887338810786533,0.8464444472663397,0.8101239174628752,0.7694347959662777,0.7332015708355255,0.6916509039716459,0.6493592528918204,0.6110374880512814,0.5880485412502148,0.5853767797329432,0.5795650354442914,0.5839035582330969,0.5913502690656915,0.5777933290162913,0.5522836914492981,0.5593313218256992,0.568361331712542,0.5733451644738683,0.5680972725300217,0.5642225003069168,0.5653386971237109,0.5616038772729206,0.5556360598942589,0.5511598842723882,0.5431083214223829,0.5475724925235377,0.5733297926646872,0.6039760087732857,0.6290179981384247,0.6574446328106134,0.6685220597733907,0.65418050389158,0.6259053293573795,0.5958744080062708,0.5662650040405961,0.5348626269098682,0.5075706734568832,0.4846996913534858,0.4674883522362534,0.45316664389549444,0.4483138796472117,0.4369102625947381,0.4198685193846956,0.3948252866030941,0.36159643017298126,0.3262272165659552,0.28839250403819516,0.250469973414571,0.21159356001576712,0.16931646942212386,0.12998587598582345,0.09240087522577645,0.0509069323629846,0.015353263199259781,0.0026377124132654917,0.039403643153923196,0.08163913641812448,0.11966987539802953,0.1564377607766987,0.18304414375646427,0.21944278936653405,0.2605604934975734,0.29685932923640634,0.3384822354177699,0.3802894017649121,0.4167104351284243,0.45758796044749084,0.49991180088942544,0.5396609750995744,0.5768781110174324,0.6190328411984571,0.6613783538540992,0.7035866869898937,0.7411331501637721,0.7805094814619458,0.8228265793364911,0.8651008780787381,0.9034772060500218,0.9415336488141506,0.9696927396410551,0.9604406416874529,0.924544443198309,0.8824360679486491,0.8445984805339408,0.8055472135081649,0.7659949361065399,0.7286295051418308,0.6877382365233387,0.6514508426926109,0.6130248746784508,0.5853695340662266,0.5826417315581871,0.5748050788208976,0.5710626173576403,0.5782819267162755,0.580216025673254,0.5557132266978233,0.5430494096656993,0.5544639625489276,0.5664695542843667,0.5699276471876675,0.5699662325927468,0.5693315089401836,0.5633171647857464,0.5618582680412052,0.5568400215014992,0.5542066118475255,0.5600717747774602,0.5800167313274864,0.608518072487712,0.6328040255961049,0.6532726038917522,0.6451724939911341,0.6234727275792058,0.5924182691436615,0.5632036879399576,0.5326905469927052,0.5027872990172888,0.4727562688823497,0.4538470987333241,0.44314710457925277,0.43759699816023145,0.4394425430418909,0.4297105794673559,0.4116341800047494,0.38153274141342797,0.34398257869939375,0.30178089654834217,0.2628466979149495,0.2248824965806988,0.18355263444820735,0.14732598828452925,0.10590552491379668,0.06656593159209578,0.029079302781084504,0.0,0.02612303410966732,0.06400814188188697,0.10232785642028208,0.13871801915034965,0.17783024901983724,0.21438067991987442,0.2560320716613049,0.2929059072702478,0.3330800137834913,0.3754125629863718,0.41688672373247915,0.4531068913445391,0.4945178548960696,0.5368619097131215,0.5789988117930549,0.6162062841988027,0.6559803100003454,0.6983101410284291,0.7405574612013284,0.7785279839253827,0.8174189125383966,0.8551037911467498,0.8867178189852003,0.9236403638578552,0.9629853184616846,0.9985993316232966,0.9918708241348388,0.9582160396215695,0.9218589017915164,0.8839501662694569,0.8474897433056707,0.8062056798144883,0.7698561328230593,0.7288633865060945,0.6877924252759826,0.651594863026018,0.6152050512810316,0.5995797326193757,0.6000302943469176,0.5942361254091033,0.5966427851938518,0.607409753835463,0.5920991518533381,0.5643080280811732,0.5670166826095129,0.5806722836091129,0.5844541391674054,0.5783826895760833,0.5732916671437054,MI
0.14550709127186612,0.17589927768114477,0.22321278495167296,0.2756672498336672,0.33217421865244945,0.38636987585119065,0.44008171215211234,0.49899334842538656,0.5611810771737156,0.6153270195330343,0.6740539311194518,0.7365721797859173,0.797097965357872,0.8500724322267235,0.9113430187041465,0.9649030264706944,0.9999999999999998,0.9820777718842064,0.9337714445969232,0.8730879536521152,0.8147598005361487,0.7602611873470366,0.6980029311303018,0.6354579310657342,0.5732578244059063,0.5189905486436681,0.4604031246482079,0.4026179856524317,0.365245449632569,0.3418994418085133,0.33750912670874755,0.34280361764205325,0.34761655815816517,0.3219876691436292,0.30663426941956184,0.3173411070635803,0.32984443652017315,0.3399014502590616,0.3388382610133511,0.32077285354356255,0.2964784311699893,0.2570681160440069,0.21427526891112314,0.16357112762837223,0.11572893827347897,0.07803139058286268,0.0407386583940017,0.03013102536838197,0.06338931385151092,0.09183934985695963,0.11558795564293245,0.13015034649098323,0.14678806512219889,0.16979438716391249,0.21218578909918295,0.25783688072294475,0.3084676419112029,0.3682757276293531,0.423104164277899,0.4810568780349993,0.5435619648874794,0.6045621410235735,0.6573887206876277,0.7184314210848355,0.7735948331754787,0.831132876443559,0.8886670753083148,0.9436156461704626,0.9871665394180156,0.9663507753526928,0.9154349625505811,0.8532803993370723,0.7907902914793745,0.7336810866693917,0.6780931124726941,0.6156782505594316,0.553182421772979,0.49582795179308037,0.44050783962390283,0.38478824658819,0.3511139693351122,0.3347486240272761,0.33459375080593134,0.33506143215583006,0.3394868428499145,0.32853149420845296,0.30870301608438777,0.30902945171649,0.32135549032115507,0.3333461127592743,0.33123196405862676,0.32001001478095836,0.2925990000955594,0.2572530631055805,0.2167470286625386,0.17291047859960518,0.13413919907898553,0.08645556423973577,0.0451381446223198,0.020336145583941923,0.0373953486782459,0.06486336660922176,0.08677350326316047,0.11121454547274601,0.12892207105557874,0.14497922463904733,0.1745062520684031,0.22553927560353482,0.28091104261651023,0.3379119127415724,0.3935545909169924,0.45054441445842186,0.5106571261219115,0.5637408278579434,0.6255395683537126,0.6858277747677193,0.7388761852389705,0.8005971437415449,0.8609984234135262,0.9136627608442136,0.9594832699390847,0.9532671993160229,0.9053565342238408,0.8462112652067517,0.7905011134871283,0.733499674586884,0.6710218246418529,0.6088954628671084,0.5549141533724689,0.49594756188949884,0.4334541279413273,0.37762146167398014,0.3447444704161915,0.32838638692931554,0.3297329380904206,0.3465830507507819,0.33865611947358665,0.31207632004253294,0.316947408077368,0.3243244075787548,0.3275584684612729,0.33259724719310335,0.3321092745190193,0.31892976816242524,0.2976539825422988,0.2612548184360126,0.2202361175066032,0.17108160122714344,0.1293619943984352,0.08810368144301606,0.05173542188157798,0.0448292880609269,0.07191156496557904,0.09624988913899424,0.1144184064735112,0.12884769228747617,0.14830627663191054,0.17720914991183334,0.2165042775276509,0.26672232920861183,0.3207403953232253,0.38101170169274323,0.4339474504877263,0.49542024739297275,0.5561822846022999,0.6090828078687529,0.6704145312130929,0.7274521617150864,0.7830787022212065,0.8400996016080005,0.8956457796578328,0.952417186868826,0.9567537285517547,0.9114603985250811,0.8511061623735279,0.7888479786592926,0.7343402312629383,0.6760288606411196,0.613507932628605,0.5511988846612674,0.49650916557231395,0.43863683538159015,0.38413738830673716,0.34148834942351924,0.3201123716142684,0.3124860068268809,0.3245372947658598,0.34863611208007694,0.35601730045892377,0.32447322296214565,0.32427419711875793,0.3288589865240483,0.3357296237942433,0.33863955305551996,0.33528467056313516,0.3279809087354886,0.2983793700719992,0.2615054046637828,0.22414261527398938,0.17758347713808442,0.13985908991256646,0.09174025763258697,0.04392058752147432,0.003564254181909865,0.0,0.022388924056341963,0.050144904731341144,0.07453911987134099,0.09766170961170628,0.10981976221193501,0.13116544471272595,0.17618668406764293,0.2282014873268785,0.28212344944862644,0.3393534193914862,0.3947594355293107,0.4520170962764498,0.5140854437653146,0.5669680231407586,0.6100222653826644,0.6644538089917849,0.7225440126036633,0.777175245433755,0.8391035453558253,0.8926677893232393,0.9349934967324336,0.9272396376064898,0.8789783499450652,0.8231557475122895,0.7821007280352303,0.7314441551877977,0.6695417567062194,0.6070341850353842,0.5490462804678635,0.4942420192262629,0.4319476137060414,0.3730685594523704,0.3377779042320268,0.31637153850915056,0.3096006559694453,0.31843981163746116,0.32362724327533043,0.30933630895328457,0.3029183934283084,0.3028408587966662,0.30577627879138736,0.30867560167765284,0.29494060693123614,0.2728509272905557,0.23520903749443067,0.19303707631942735,0.14401175177115566,0.09567243200482034,0.056858772741736896,0.013943143684383541,MI
