0,1,2,3,4,5,6,7,8,9,10,11,12,13,14,15,16,17,18,19,20,21,22,23,24,25,26,27,28,29,30,31,32,33,34,35,36,37,38,39,40,41,42,43,44,45,46,47,48,49,50,51,52,53,54,55,56,57,58,59,60,61,62,63,64,65,66,67,68,69,70,71,72,73,74,75,76,77,78,79,80,81,82,83,84,85,86,87,88,89,90,91,92,93,94,95,96,97,98,99,100,101,102,103,104,105,106,107,108,109,110,111,112,113,114,115,116,117,118,119,120,121,122,123,124,125,126,127,128,129,130,131,132,133,134,135,136,137,138,139,140,141,142,143,144,145,146,147,148,149,150,151,152,153,154,155,156,157,158,159,160,161,162,163,164,165,166,167,168,169,170,171,172,173,174,175,176,177,178,179,180,181,182,183,184,185,186,187,188,189,190,191,192,193,194,195,196,197,198,199,200,201,202,203,204,205,206,207,208,209,210,211,212,213,214,215,216,217,218,219,220,221,222,223,224,225,226,227,228,229,230,231,232,233,234,235,236,237,238,239,240,241,242,243,244,245,246,247,248,249,250,251,252,253,254,Target
0.37648627695581116,0.4528625922964501,0.524828577829129,0.5761868916191585,0.6355624127020033,0.6746391557928607,0.6799175661562925,0.630117248515894,0.6510822182582224,0.7255380579072556,0.8053313027039516,0.880564626422038,0.9240160291746288,0.8827469931173898,0.8423604359346207,0.8072980435811973,0.7655351077989639,0.7162229234367211,0.6904006271399726,0.7109272600919662,0.7488157918821444,0.7868622126885724,0.8221050193273979,0.8425364690146745,0.8431978721776251,0.8500928453836712,0.8535146006680835,0.8395525222402346,0.8143879381043247,0.8082404765171619,0.8317135855785499,0.8357472688381792,0.8185437174996816,0.7728397419155234,0.7065446972786124,0.6281357615811346,0.5494925202283351,0.4670452878000696,0.38986369676527965,0.3084473961192665,0.2251977718375392,0.14478437671216027,0.11621815902946386,0.17564024126101063,0.2565918781562748,0.33525656906389867,0.41475001271339573,0.49777169577022395,0.5764253689947608,0.655610277895693,0.7332907608805191,0.8105611145275254,0.8850012591185915,0.9128112004011021,0.8627076816031966,0.8210213881005587,0.7856371925262488,0.7407188096048322,0.6955852175025022,0.6686233168471282,0.6809411781804894,0.7149158259419474,0.7435464696119102,0.7699415436365143,0.7666233760812099,0.7583045881494478,0.7688268898239737,0.7694605301100298,0.7440967496898409,0.7367870667037296,0.761571257933867,0.7715176266542317,0.754421425866895,0.6953408524239985,0.6192213395228693,0.5386468049946008,0.47007832258198545,0.4041141872612629,0.3331970882777969,0.2554059930246486,0.1728438122379522,0.095359775157427,0.018585558348032993,0.0,0.06528737902837844,0.1355916904356178,0.2059657298898775,0.2770356250795798,0.35866049045500936,0.4388750507898108,0.5168948519738895,0.5984631116739244,0.6754315027693499,0.7549154109504977,0.8296516670586492,0.874848931116042,0.8343065887217375,0.7893803680414161,0.7615711878962542,0.7204135448582686,0.6755036083245839,0.6474905456966421,0.6679890457564864,0.6989811179100934,0.7334724455642104,0.7599443811314196,0.7621374891451399,0.7697123148274453,0.7811915803093917,0.7734269132755202,0.7850900824235169,0.820347398939672,0.8284465994705571,0.807598467969168,0.7422120564560827,0.6648728059198318,0.5870474137065477,0.5070442832428145,0.4270696886749493,0.3488791181372096,0.2658992411265204,0.18635661421288363,0.11841823494688919,0.060094699760755654,0.06857727034440642,0.1388191484084763,0.21881599769740112,0.2964631863058058,0.3771105888635463,0.460164020933877,0.5357311795973686,0.6099056425222972,0.6889621937552691,0.7675546641032381,0.8455404117277984,0.914396362415333,0.9155227256684727,0.8671452424034801,0.8385473696697342,0.8009589210551119,0.7568466430502755,0.7163240749248333,0.7135749276180386,0.7430445401499247,0.7405215343762265,0.7671412567886006,0.8104443958322681,0.8523656551662248,0.8818261097781174,0.9250712237004316,0.9780256096335388,0.9999999999999999,0.9459492712464682,0.8674012668799115,0.7903020730272888,0.7134112529952851,0.6322903789737492,0.5536237177122755,0.4794510119384999,0.4780536757595816,0.5550857810525992,0.6335442482035584,0.7126521262683273,0.7888038302084205,0.8452639718068616,0.8502583845881343,0.8545319404570847,0.8321498316083921,0.8034192372213061,0.8065609933682053,0.808291470418738,0.7942642684556528,0.7895422770264479,0.7759207885772027,0.7438424001891389,0.7104176200734637,0.6832696269885427,0.6981027020162688,0.743435773911934,0.7836129267037247,0.8129969784955869,0.8569883657591083,0.923129733722866,0.9496315717367932,0.8981820391405911,0.8341722837868163,0.7656086900639442,0.6834937471859551,0.6002483164749172,0.5192496597412976,0.441819624513336,0.3617581576877483,0.3436328230880469,0.41271899245732435,0.49528370254014054,0.5730995311447095,0.6526292789860678,0.7280809818218222,0.7850359039168794,0.7963764780465951,0.7989731271832404,0.7809918341838592,0.7678361899618583,0.7918631677574391,0.8007983599141538,0.793776276682476,0.7881749975985676,0.7995306692990086,0.7896340553545619,0.764501827345185,0.7336828846420297,0.7042967879528451,0.7123926497846228,0.7537072081264945,0.8004891159840185,0.8360406140984472,0.8774275863940088,0.9384443787282942,0.984318940670211,0.951416811574821,0.8790833246293083,0.8029153636180647,0.7256755062558654,0.6462364915178945,0.5692669492863199,0.49776405701425663,0.5145319667861284,0.5934609029054269,0.6722940806144927,0.7515074341512397,0.8280223222672886,0.8632063848180441,0.8601202009510319,0.8667207098249364,0.854659943920082,0.8350113035935657,0.8519582912196021,0.8737769340986844,0.8816737805743794,0.8778475906699535,0.8713941096974359,0.8705884776755125,0.852080750872047,0.8182515202941539,0.77987739258964,0.7434187774203246,0.7240128443447135,0.7591990176244608,0.8058705191042258,0.8443735695601328,0.8797097170377485,0.9345503428218843,0.9888116280247751,0.9707279669357051,0.908500699568508,MI
0.30532703246954407,0.3628274063076389,0.4136333971488364,0.42432072402338994,0.42481593726114353,0.4223271391600263,0.40208873259636224,0.41014758210829116,0.41855380466356573,0.4161601944631199,0.4312344240331556,0.4445179357478777,0.45381330199791936,0.45391998325490235,0.45329396940848365,0.4307872027866937,0.39345420398445974,0.3731028811046695,0.3757567152212973,0.4322104993755591,0.4798710022709334,0.5050605347613524,0.5021602999912398,0.5142554667081187,0.5082881827678669,0.5297604392580233,0.48473382749556126,0.3924031044339169,0.30533374107500677,0.30420681430376595,0.39347465372220114,0.4965999146497735,0.6023952229409946,0.7145767476691036,0.8077783693437017,0.7862839101145682,0.6838188869759074,0.5825712940547039,0.4789976317317306,0.38496652266318776,0.323553853206378,0.29435843262429584,0.25871944181784245,0.230353923647296,0.19876762698877481,0.17258779911321653,0.13147520881617814,0.07944162561633439,0.026518345204983973,0.0,0.01330787782308418,0.0646995898943401,0.13721439955841763,0.2165682938289959,0.29714754822163725,0.37236978443022517,0.4402576258576838,0.4863477272833978,0.49498326915106805,0.478228522753283,0.47579518607242166,0.4651879729056758,0.454116682515477,0.4536126489448358,0.44128129673010497,0.43200142925135143,0.43214867404549784,0.44400063152160785,0.44161028096254507,0.3890438981135307,0.34475746887437264,0.32724713346269807,0.365784465484027,0.4185160789364568,0.4546667180651087,0.4640623644507236,0.4668703966416432,0.45961529145240165,0.471041701111103,0.45806109606323187,0.3687348565984583,0.27171100891022926,0.2437763977913825,0.31397357875770426,0.4170991822508885,0.5288997710595318,0.6302448924462944,0.7195213643626475,0.6760577709354814,0.5704253721595172,0.47191064025388174,0.384967884975036,0.31115911618798187,0.26581194306442324,0.24702019736785852,0.22918657771819229,0.19581376970072473,0.16434149042558444,0.1198065752969133,0.06796327469679442,0.02620011007494405,0.015899871853963354,0.037004281105257775,0.08309468868390368,0.15311218306067342,0.22978560044216323,0.3059951390854052,0.3669360759171778,0.4189844709079993,0.44726590154133383,0.4534496618516708,0.43980693250586445,0.43194135028622416,0.4318813738472098,0.4318813738472098,0.4318902270609293,0.43535915529417535,0.45210173808889254,0.453910459922406,0.44793343651535666,0.3975357679888827,0.3624443938856112,0.3332200700890935,0.3654493074297527,0.42403027779088953,0.44847235280008224,0.47472301404923956,0.482416984214213,0.5319854980360064,0.5506681535515567,0.5440360075137987,0.5141439492122255,0.4927907572179864,0.44159026668548185,0.4422274224113458,0.4825846888156953,0.5244520976346716,0.520752678362959,0.5175722146972741,0.507089233955079,0.5066001311738453,0.495157362276907,0.48743746358281737,0.5042443859511145,0.5068416166025838,0.5132371145853547,0.5185864212219604,0.5160001673626624,0.501332404169859,0.46075615335843256,0.41058698071318434,0.3500488406908997,0.274979679600734,0.1945102307848403,0.13137165471945833,0.08842979726832212,0.08451731948295294,0.1298052228461648,0.17637299935410278,0.2230012176072811,0.25085942748212053,0.2827078872643489,0.30591888570406534,0.32941209044541697,0.37478291248168727,0.45824616039464505,0.5504845716003866,0.6489408801275642,0.7569976638602625,0.8572304766448133,0.915650536912048,0.8672861681246444,0.7708094330040791,0.6680953328996915,0.5618573935040354,0.4604602307166763,0.4725651396176196,0.5373538696133107,0.534102622501023,0.5288738229397341,0.5288510218413149,0.5278285163390581,0.5106541939953235,0.48160390846910506,0.4267067055210787,0.41540511196456453,0.45156306935405555,0.5054906727681621,0.5114337243751677,0.5067155067331499,0.49744243770485586,0.49133624802417186,0.5060491945378098,0.5084719998378531,0.525065349019807,0.5304949607002643,0.5470920166513262,0.550879674903856,0.5508350383567078,0.54295399285501,0.5066098700206076,0.4396451366450189,0.35631156644828765,0.2760953958453727,0.2063264738183217,0.1316425071331242,0.0746447606699312,0.09872866681188919,0.1416162213364629,0.19271643095800783,0.2333289893598387,0.26486162099473276,0.29242374406217797,0.319416296999707,0.36084934644951216,0.3880186228986351,0.43339942082728733,0.5226369200834409,0.615723916428704,0.7202988237264072,0.8288959932956517,0.9349145022881387,0.9999999999999996,0.965918219815221,0.8810998127954641,0.7801020626140969,0.6700958391564598,0.5622775898276475,0.4987594615178397,0.5695860443981742,0.6089392368869087,0.5916285856932832,0.5743380824395565,0.5693117071422011,0.5673139442584825,0.564659596508621,0.5280392281586241,0.4787604223890294,0.4527914281183931,0.4581359234116267,0.4975022899322479,0.512687657066929,0.5274467275496213,0.5142530997985024,0.506867421796545,0.5067855935481935,0.501237876642004,0.48571012189397544,0.4847750782976177,0.48627475922590113,0.5021778467633164,0.4922558795804428,0.4842812456106107,0.465127293125021,0.4181427231575383,MI
0.30532703246954407,0.3628274063076389,0.4136333971488364,0.42432072402338994,0.42481593726114353,0.4223271391600263,0.40208873259636224,0.41014758210829116,0.41855380466356573,0.4161601944631199,0.4312344240331556,0.4445179357478777,0.45381330199791936,0.45391998325490235,0.45329396940848365,0.4307872027866937,0.39345420398445974,0.3731028811046695,0.3757567152212973,0.4322104993755591,0.4798710022709334,0.5050605347613524,0.5021602999912398,0.5142554667081187,0.5082881827678669,0.5297604392580233,0.48473382749556126,0.3924031044339169,0.30533374107500677,0.30420681430376595,0.39347465372220114,0.4965999146497735,0.6023952229409946,0.7145767476691036,0.8077783693437017,0.7862839101145682,0.6838188869759074,0.5825712940547039,0.4789976317317306,0.38496652266318776,0.323553853206378,0.29435843262429584,0.25871944181784245,0.230353923647296,0.19876762698877481,0.17258779911321653,0.13147520881617814,0.07944162561633439,0.026518345204983973,0.0,0.01330787782308418,0.0646995898943401,0.13721439955841763,0.2165682938289959,0.29714754822163725,0.37236978443022517,0.4402576258576838,0.4863477272833978,0.49498326915106805,0.478228522753283,0.47579518607242166,0.4651879729056758,0.454116682515477,0.4536126489448358,0.44128129673010497,0.43200142925135143,0.43214867404549784,0.44400063152160785,0.44161028096254507,0.3890438981135307,0.34475746887437264,0.32724713346269807,0.365784465484027,0.4185160789364568,0.4546667180651087,0.4640623644507236,0.4668703966416432,0.45961529145240165,0.471041701111103,0.45806109606323187,0.3687348565984583,0.27171100891022926,0.2437763977913825,0.31397357875770426,0.4170991822508885,0.5288997710595318,0.6302448924462944,0.7195213643626475,0.6760577709354814,0.5704253721595172,0.47191064025388174,0.384967884975036,0.31115911618798187,0.26581194306442324,0.24702019736785852,0.22918657771819229,0.19581376970072473,0.16434149042558444,0.1198065752969133,0.06796327469679442,0.02620011007494405,0.015899871853963354,0.037004281105257775,0.08309468868390368,0.15311218306067342,0.22978560044216323,0.3059951390854052,0.3669360759171778,0.4189844709079993,0.44726590154133383,0.4534496618516708,0.43980693250586445,0.43194135028622416,0.4318813738472098,0.4318813738472098,0.4318902270609293,0.43535915529417535,0.45210173808889254,0.453910459922406,0.44793343651535666,0.3975357679888827,0.3624443938856112,0.3332200700890935,0.3654493074297527,0.42403027779088953,0.44847235280008224,0.47472301404923956,0.482416984214213,0.5319854980360064,0.5506681535515567,0.5440360075137987,0.5141439492122255,0.4927907572179864,0.44159026668548185,0.4422274224113458,0.4825846888156953,0.5244520976346716,0.520752678362959,0.5175722146972741,0.507089233955079,0.5066001311738453,0.495157362276907,0.48743746358281737,0.5042443859511145,0.5068416166025838,0.5132371145853547,0.5185864212219604,0.5160001673626624,0.501332404169859,0.46075615335843256,0.41058698071318434,0.3500488406908997,0.274979679600734,0.1945102307848403,0.13137165471945833,0.08842979726832212,0.08451731948295294,0.1298052228461648,0.17637299935410278,0.2230012176072811,0.25085942748212053,0.2827078872643489,0.30591888570406534,0.32941209044541697,0.37478291248168727,0.45824616039464505,0.5504845716003866,0.6489408801275642,0.7569976638602625,0.8572304766448133,0.915650536912048,0.8672861681246444,0.7708094330040791,0.6680953328996915,0.5618573935040354,0.4604602307166763,0.4725651396176196,0.5373538696133107,0.534102622501023,0.5288738229397341,0.5288510218413149,0.5278285163390581,0.5106541939953235,0.48160390846910506,0.4267067055210787,0.41540511196456453,0.45156306935405555,0.5054906727681621,0.5114337243751677,0.5067155067331499,0.49744243770485586,0.49133624802417186,0.5060491945378098,0.5084719998378531,0.525065349019807,0.5304949607002643,0.5470920166513262,0.550879674903856,0.5508350383567078,0.54295399285501,0.5066098700206076,0.4396451366450189,0.35631156644828765,0.2760953958453727,0.2063264738183217,0.1316425071331242,0.0746447606699312,0.09872866681188919,0.1416162213364629,0.19271643095800783,0.2333289893598387,0.26486162099473276,0.29242374406217797,0.319416296999707,0.36084934644951216,0.3880186228986351,0.43339942082728733,0.5226369200834409,0.615723916428704,0.7202988237264072,0.8288959932956517,0.9349145022881387,0.9999999999999996,0.965918219815221,0.8810998127954641,0.7801020626140969,0.6700958391564598,0.5622775898276475,0.4987594615178397,0.5695860443981742,0.6089392368869087,0.5916285856932832,0.5743380824395565,0.5693117071422011,0.5673139442584825,0.564659596508621,0.5280392281586241,0.4787604223890294,0.4527914281183931,0.4581359234116267,0.4975022899322479,0.512687657066929,0.5274467275496213,0.5142530997985024,0.506867421796545,0.5067855935481935,0.501237876642004,0.48571012189397544,0.4847750782976177,0.48627475922590113,0.5021778467633164,0.4922558795804428,0.4842812456106107,0.465127293125021,0.4181427231575383,MI
0.8170739967854741,0.8561284527580699,0.8797180512654494,0.8871149475266511,0.8736336893187178,0.8102734307150798,0.7266872316411963,0.6501754055978124,0.6000820305204086,0.6240560641548669,0.6535852069507302,0.5751528606326823,0.48107113763982534,0.3938742292247668,0.29764668423524787,0.200778787368723,0.11154070153235929,0.025514357947311384,0.0,0.0715437501693219,0.15809917447661115,0.254044081016372,0.3511773517541634,0.44828226543313754,0.54147968274409,0.6293262838931841,0.7242925954400448,0.8093801640039324,0.8843930578615058,0.9270173947571954,0.9349479200302884,0.9231251026952385,0.9078604522501885,0.884873476954658,0.8483188851799148,0.8062643265261771,0.795583826524634,0.8037444202417328,0.8226300170211733,0.8597758967593829,0.8585108106998576,0.8429823343447616,0.8430508199864739,0.8521124479900009,0.8689003809008684,0.8615949154416171,0.8664247086075958,0.8613015843824188,0.8293315504465422,0.7909615008620243,0.7561764056577023,0.7434634811293226,0.7646732821410567,0.7601734124711197,0.7511195867277236,0.7443462535596364,0.7159633417507345,0.721658159043008,0.7626290433598675,0.8222087418899238,0.869338092311873,0.9020825003098774,0.9471331352502277,0.9489505941162315,0.8788439332065157,0.7919666404538133,0.6959342053898598,0.6069846297748398,0.5151188178113584,0.42032615408678353,0.34341284592201515,0.2600723689315616,0.16809453354451542,0.07557155255402881,0.02360127543334034,0.06800964264676268,0.16081982181390475,0.2488736544510739,0.341774936565846,0.43887524959950075,0.5360100269903476,0.6330405204973413,0.7240033685629956,0.8106815178891045,0.8894431098404103,0.9264083839391131,0.9198054782726006,0.9108031553993021,0.8930842815564233,0.8711843815496942,0.8520090329088659,0.8221873955739432,0.8017355716587076,0.8054561740286827,0.8253520451755552,0.8653108023677929,0.9002110058500878,0.9080710508173759,0.9116896028440615,0.9219734463559857,0.9281469935579543,0.9115911569432431,0.9061772212980828,0.8982001104322686,0.9021684873398879,0.8946958064444168,0.8951006292903079,0.9036793258597224,0.8935926095625899,0.8577300505509491,0.831079840437505,0.8457327682165119,0.8783379446226693,0.9067550260690649,0.9163581883854375,0.9021392240402439,0.867614189353201,0.784632172277701,0.6924755266319786,0.5955603912543033,0.5054285567721672,0.41482678487642244,0.31783100786180674,0.2231624692322942,0.13627990356058706,0.04755055557641508,0.03365970526153084,0.10961584568201044,0.20478939226895787,0.29171033122579626,0.38632983670895094,0.48285488794941145,0.570567772941301,0.6632946392969246,0.7506345397356504,0.8350702592672079,0.9074356640826144,0.9456097353657584,0.9397396356530023,0.9254946276803497,0.8982767970659731,0.8752100872817452,0.8525704869199047,0.8922910941280857,0.9221177971423413,0.9474423741020781,0.9693210335693869,0.9815624704063575,0.98814647974318,0.9654528555437023,0.9088205919148125,0.830807396599232,0.7442035545253713,0.6555541713365003,0.6281453222212361,0.7125645479303733,0.8061456207691642,0.891180408324246,0.9560100237725411,0.9622602833595348,0.9576756001591848,0.9505724057529059,0.9268144947375732,0.8868425530537032,0.8855441864307447,0.9255642901848808,0.9477576523058409,0.9442169330724572,0.9311188929740906,0.9437589289647421,0.9427051012565408,0.9421487915034612,0.9491361781339014,0.9505849371598474,0.9658957610438879,0.9668800182157578,0.9542584355242341,0.9568680294796288,0.954082559220488,0.9353439454453885,0.9036556077992268,0.8681306885246884,0.8516963205491133,0.8631568792456548,0.8895298571706827,0.9124567014322771,0.9283938072404518,0.9505353526454228,0.9603405938063465,0.9661400043096238,0.9545466804787919,0.8928519711489888,0.807656189557896,0.7214510852450509,0.6271646157944855,0.5455268652115488,0.5509674426370574,0.6429068084961356,0.7317265813995635,0.823033588315617,0.9097148524740113,0.9831218298172952,1.0000000000000002,0.9865450469853594,0.9442727219947431,0.9102736791926482,0.8663062792158425,0.8038687421640176,0.771564261244871,0.7859620923627906,0.7979816160055437,0.8028705099221998,0.8345641262852437,0.8095568377536069,0.7959701681210294,0.8137196525026005,0.8459346434823873,0.8853011320548763,0.9114069352247929,0.9218435057002596,0.9093530461677195,0.9243822103308126,0.9198535952850502,0.8923772411656856,0.9015084122476698,0.8984161595740423,0.9063752935448257,0.9094952773846947,0.8839809957505851,0.8523073593804262,0.8370730266132786,0.8575939589642807,0.8981004068798539,0.92787998073309,0.9472158970099727,0.9617254540878324,0.9750433660022757,0.9725078033113148,0.9487833683608258,0.8949594674465005,0.8106800976351509,0.7218598720643563,0.6338856480334278,0.5417780128648453,0.48683339424493144,0.5496148024968013,0.6453258841595002,0.738757505774635,0.825643571684006,0.906973158635717,0.9340474379295303,0.9266492426665736,0.9161817847489753,0.9026015218292402,0.8600983033453999,MI
0.73559523729211,0.7383000193915628,0.7403854262817133,0.7535138960237955,0.7626214227263826,0.7732025563029121,0.7742184372757541,0.775414702710294,0.7624957282410163,0.7330744940846716,0.7491829053136754,0.782870867152746,0.7930879736056542,0.7925341275529485,0.7319727558963467,0.6398091938611632,0.5459526679712026,0.44663504982586866,0.35600667952947207,0.25918227198485044,0.15901428408424634,0.060077007940892546,0.0,0.04732313164814128,0.13625125348970335,0.23549088844729393,0.3261064585005464,0.40337196418248755,0.49507304287093445,0.5868594726015228,0.6778557158621825,0.7634391794938504,0.8096605708442892,0.8100776085964188,0.7734971390748906,0.7326413893959232,0.6775642913359263,0.6209332793684901,0.5678274371149321,0.5189084075189769,0.5131465577051149,0.559470988788513,0.619145020658161,0.6807294515819349,0.7384256479172664,0.7711740422499367,0.7636330764743451,0.7544470619753332,0.7659387520054715,0.7782443108945958,0.7793933610699679,0.7780177569005264,0.75750422579305,0.733040492520995,0.7441756133951771,0.7817314557377246,0.8113199453269426,0.8382964725539104,0.8651620157978508,0.8138607240016151,0.7238114640502831,0.6249348048046941,0.5342830229854205,0.4374946072995849,0.338620763598769,0.24857450657313307,0.15508036696464678,0.11248265827193271,0.1696442609842872,0.2629381902617116,0.3577760161266148,0.44990384784871384,0.5497829105088834,0.6499707019601031,0.7491443487676288,0.8379623145719552,0.9069730291563189,0.9342970872580425,0.9361542519926043,0.9065949661556738,0.8578375738317443,0.8233713969640846,0.7700454186235182,0.7206403595558633,0.7199507575975281,0.7636722572398424,0.8237305839583065,0.8848591298220922,0.9264501451240799,0.9207141331032531,0.9063244751160289,0.8834500579657911,0.8657441668838914,0.8564788574595785,0.8351038321579214,0.8160726180004847,0.7806060908745187,0.745037385239617,0.7323042538275222,0.7525820829231207,0.7483779748401824,0.7533644990299555,0.7245098996850747,0.6331443488524378,0.5330310451617102,0.4330129704629122,0.33972533783939207,0.24602755783636376,0.14811354515430986,0.05974970670620383,0.011285569220468306,0.07123534932931874,0.16269806525773634,0.26134119962258784,0.35139837588489176,0.44825188090093904,0.5381398770420138,0.6266310803604722,0.6875687198126892,0.6889190336020117,0.6642711467167155,0.624524173497008,0.5626108022538592,0.49807248462968845,0.4405294004379028,0.3852161918579955,0.3488419921268926,0.37123638920092183,0.42957096967078967,0.49870006427738467,0.5635923583085258,0.630146062098393,0.692735043667219,0.7385967271569824,0.7646951915102709,0.7714453881980967,0.7909885879159977,0.8114438146036842,0.8038776244700836,0.7808572427888851,0.7402476847016133,0.6823163381716602,0.6195058259444317,0.5524328841729829,0.47974932301202067,0.4191356994133253,0.40759946792064583,0.459364272198606,0.5199309059815107,0.577891268250343,0.6417051540213881,0.6939940326708274,0.7280405493576318,0.7505443110524777,0.7530502373750054,0.7480432219666491,0.6770176004369937,0.589660402777004,0.506975132217236,0.43970277052628126,0.45867163634151464,0.5531939474718683,0.6452549003509391,0.7362339432900846,0.8200150367414465,0.8442873910725428,0.8061157451878223,0.8101345695530275,0.7974696891148474,0.7789312221258178,0.8000192274538116,0.8379158579258208,0.8641613050702177,0.8863778201131409,0.9029749780451879,0.907936789865039,0.9301519564442344,0.9550322729682752,0.9662171992260027,0.9715427649094464,0.9344789040699162,0.8774729257269862,0.8192791016244625,0.7673453608152125,0.7704325918815469,0.8267659944601324,0.8736441803021968,0.9115796966564802,0.95326905895427,0.9818828377691502,0.9813013513076219,0.9627525098013092,0.9205311765983875,0.8374970617161654,0.7468591618894305,0.6566424714704997,0.5587952594970247,0.5208486346458296,0.6032048216637738,0.6930883759051354,0.7891825989534107,0.8782962979914419,0.964051954022874,1.0,0.9396187893531045,0.8867761869685564,0.8637017381661911,0.846620216143128,0.8032420994029881,0.7764718540824389,0.8009841798810249,0.8122293023254734,0.8187218780532683,0.8213624018039498,0.8105163840542104,0.7999300372888349,0.8023090765056615,0.8107461806351108,0.7891385469228451,0.7397268016818512,0.6808906011099762,0.6157950633624152,0.5602044885521815,0.5607450680342478,0.6169280658888621,0.6738991003264312,0.7255213936791578,0.7779190870531236,0.8192579006496938,0.8475994413173815,0.8507640848199678,0.8413801799969391,0.7826795972572751,0.6952982709368487,0.6046407037854626,0.5210515815636345,0.5404778152448642,0.6368786226926693,0.7276234642267885,0.8240933654113625,0.9041655954107823,0.8873150802001155,0.8343357114882153,0.8253435967473681,0.8070948302651697,0.7808156863638311,0.8008777801348272,0.8120266715765019,0.8122533214267391,0.8108436235271599,0.8006235835016811,0.7923428621469455,0.7808357566780537,0.7832077565325615,0.7761383632818237,MI
0.6334686113329218,0.5894444354788226,0.5347083935823318,0.4475707794265924,0.32482610110370036,0.22723727359885437,0.1640389029968503,0.14842913078151954,0.1249144792108079,0.18766659185088486,0.2924732973235056,0.40007911322401446,0.510656411980269,0.6255676169600082,0.7248035478529391,0.7833253509261526,0.7964157016250413,0.7908913081587943,0.8144520418485892,0.8137048024822229,0.8201467467175028,0.7983748908815493,0.7454233346257224,0.7303123982445356,0.7848111294416729,0.8426623915951619,0.8805725494119918,0.8871697038070954,0.8490423850867632,0.729047096032093,0.5872940751545586,0.4412535536687807,0.3050203782953038,0.16289392285927562,0.07624998238035108,0.1462530779647606,0.2810293561742876,0.4213870421599051,0.5577715650725961,0.7015637233752838,0.831994334942872,0.8560558377942926,0.7655129257896718,0.6949096112254489,0.6355097229745503,0.5884123847068516,0.5175874923508896,0.4445168636066885,0.3669451564563211,0.2761675669647494,0.19072178688720864,0.12786204587318828,0.1560558395787921,0.24728407255376794,0.35140436245716433,0.46891787397315987,0.5904559376746685,0.6917571829279456,0.7554697912883319,0.7604762094123374,0.7588458280424022,0.7650493976949653,0.7832754766044339,0.789788134471364,0.7416927353416396,0.6939583237856937,0.7139831177434193,0.7808067175746736,0.8338757901157319,0.8574178205897391,0.855503145147051,0.7562455021926313,0.6214093746461558,0.47294817021757307,0.336364935066809,0.19175002435647137,0.059270736440009575,0.0,0.0942567398273697,0.22841009941492363,0.3759049721935641,0.5127821758729989,0.6535370782170187,0.7760705705776139,0.7760504834262139,0.7043936295780848,0.6512459277438816,0.6008749573820453,0.5442649213895847,0.47447769121533456,0.39447596570992793,0.3046198852116082,0.21417399626398304,0.15389056807321744,0.1668938678058023,0.25473728946951724,0.3610972804326531,0.47211943582943494,0.5948197742361079,0.6978477857376122,0.7665666577426302,0.7736421794310369,0.7773048585513238,0.7856915721827291,0.7984146130467926,0.797186590432371,0.7602086150333167,0.698854511461712,0.6988647926240512,0.7533427616774806,0.8095662019244534,0.8392403125538306,0.852740420271334,0.7745252525953856,0.6487748293359559,0.5192502061879445,0.377987739642474,0.24220613960687087,0.09887630003390413,0.015387414038522618,0.09029548041594948,0.22890896893971346,0.36440781560718305,0.5125797846893301,0.6628445480969773,0.7795034531033624,0.7495584442025316,0.6869769835767601,0.643024132240793,0.5905893677091987,0.5334387024136169,0.4686114041148026,0.47904376370105295,0.5626934188105293,0.6222793545185996,0.6729126526577809,0.7173251694605773,0.7701321554045593,0.8629988944541744,0.9626237262724247,0.9666653069682791,0.8764517636540186,0.7479043398678278,0.6118887751223054,0.47765925268214904,0.4891742102425418,0.6166214131894168,0.7469049680544639,0.8711863552059822,0.9345203803032507,0.9098722055968791,0.8959808975667367,0.8611023412281802,0.8058552473401357,0.7636333560273569,0.8074139530625462,0.8525795871454824,0.8668757910763305,0.8637047584840958,0.8529012112017327,0.8474247033086257,0.8462645582639898,0.819923244162803,0.7495804184822816,0.6386445618772689,0.5272959375249955,0.4149893835596492,0.30726748611330024,0.22830737581448712,0.26552544923533095,0.3550838392766327,0.4436224508698059,0.5233163764780318,0.5926547336058747,0.6537815468909653,0.6989331942881738,0.7578207821571699,0.8312723948515868,0.9361051794545654,0.9859082344605334,0.8932175298379836,0.7576579007395883,0.621161788134601,0.5117042776714515,0.5789886389006416,0.71013920722402,0.8373934483327519,0.9283927747810301,0.9236674725756098,0.9067965266589013,0.8749282346784515,0.8156345145225794,0.7830532896578108,0.8210907592881558,0.8465896799657271,0.8460797486481857,0.8320931270197738,0.8351666381941634,0.8327395382574014,0.8251423580321879,0.7761072429504732,0.6823624770368526,0.5729192082503674,0.45921558125883344,0.3472702488651218,0.24802405566873365,0.21735686647876884,0.28599770485872433,0.3705431371795571,0.45990249728279853,0.5337216629196857,0.6055911439221484,0.6700519893940284,0.7201318903418401,0.7845585816410852,0.8697562306014781,0.9773344651136537,1.0,0.8970599628653635,0.7637098311965187,0.6206838967387833,0.5325047563145833,0.6221346455216517,0.7537031103583551,0.8795568395600064,0.9668882532909642,0.9595785426170331,0.95063615651268,0.9192130098055178,0.8593510986830095,0.8093436125417615,0.8294747210689053,0.8746226563187869,0.8825555918166512,0.8856361681684728,0.8744893219701542,0.8675267957590806,0.861009583525632,0.8274414287012233,0.7602835566838739,0.6665224109327905,0.5576167367017626,0.4447194262733425,0.3335414009341502,0.2253779084851537,0.2261613414543726,0.30911273601161815,0.4204694466089913,0.4386331202588134,0.4340091209398982,0.5090583093295042,0.5447868828022111,0.6109857334162268,0.6632573341092067,0.7054654420909579,MI
0.482010220471651,0.5267249109709284,0.5708257740244074,0.5593252862034037,0.5806031148571171,0.6439269974874022,0.710813447219963,0.7721279532216876,0.8255996200410545,0.8578144755335844,0.8577138509729583,0.8564508239488275,0.8564449341051397,0.8563944500464853,0.8519518154617589,0.8327336200694075,0.8345504072593488,0.8551020518047687,0.8686872783320925,0.8288199207614597,0.7552475536600409,0.6761820093570998,0.5970965425996098,0.5222210392096456,0.4423192500951687,0.36190533940983394,0.2859500987997958,0.20840836598815848,0.12820391272141396,0.053410776660182235,0.004736551069475681,0.05063932165204432,0.12593709867744474,0.2033006347766857,0.2838566037174345,0.3628941894273856,0.43779794765100477,0.5177287610564949,0.5983123781141824,0.6754747261626197,0.7357231022961137,0.7603414904306645,0.7341350351155362,0.6901132192198289,0.6342066253002039,0.5781712819241067,0.5231879717621712,0.4730165037127234,0.4669555529943883,0.5153655380164643,0.5756432234551685,0.6367063309944685,0.6974739339252498,0.7605176698525578,0.8138328216940103,0.8442045642547364,0.8479153374920549,0.8424790145067051,0.840424861470831,0.8405308751058786,0.840989045754946,0.8261490419766417,0.8294733777388867,0.8532102283826124,0.8816686742895219,0.8689462006008792,0.7970080717388055,0.7199973670179396,0.6400857551247796,0.5652211237758744,0.49210726387028125,0.4270598288763612,0.3624591665092901,0.29193338292612214,0.21182394764537316,0.13168509433036868,0.0569969861036933,0.005040964411552218,0.04636679155136059,0.12013445747474638,0.19987641822569202,0.28034102399121275,0.3566072956062101,0.43380628742586014,0.5141859707901859,0.5903255896010986,0.6648476702086246,0.7321805486291948,0.7602050636277191,0.7320934528915575,0.6854489908221955,0.6313794176616201,0.5740426645753349,0.5201544015594624,0.47637907106997535,0.4846334013378295,0.5351947245895812,0.5986453661265834,0.6596348370472085,0.7203996865316318,0.7802698906315029,0.8327847587950103,0.8551263829575233,0.8564430142405237,0.856500587604305,0.8589127821024947,0.8632994266261305,0.8656566662672969,0.8495715816774354,0.8485776500605133,0.8668153930018507,0.8884349305253498,0.896776656716294,0.8285798286202384,0.7535238596026441,0.6749454165332542,0.5977137888051502,0.5214911200482824,0.4410313850708194,0.3604811886214432,0.2833772462805684,0.20701962598706947,0.12658985500469822,0.04933493439319747,0.0,0.044185025660182786,0.12048910251857425,0.19668474530535163,0.2771260912552458,0.3560850448351701,0.4310239202067423,0.5109877704409158,0.5898641041872106,0.664190716094418,0.7341632243172949,0.7671085932825517,0.7428062832867666,0.6982838685756223,0.6450081297203489,0.5861380952779509,0.5266182300037614,0.47505094705478745,0.44973261010714394,0.48261123853361676,0.532652724628639,0.5895116295055394,0.651457545143276,0.7056300053435409,0.750759688963559,0.785448533116085,0.7956590693211516,0.7583273902450618,0.6899973773328223,0.6169788243249716,0.5748572370104181,0.6297535300053436,0.7065001671475439,0.7847558202779705,0.8600610859059701,0.9388362624088171,1.0,0.9859700317531301,0.9272504862371094,0.8915861370459433,0.8732554669090766,0.8879347249066896,0.8903240297451707,0.88301384277426,0.8770072437825547,0.8756953252653725,0.8756608355368352,0.8710396597834105,0.8359057845683449,0.7824108010896575,0.7231741643157625,0.6605309317666133,0.596030639544699,0.5375289783247728,0.5064485455660188,0.5452136547379414,0.5995361062228981,0.6536912027724466,0.7088907863595975,0.7539246492771203,0.7850279549958488,0.7824938060517941,0.7353990887165196,0.6656713466447697,0.591691297602706,0.5141471512800286,0.45269298730558094,0.4902917425633242,0.5698503500322551,0.6469491730872032,0.7233000135516834,0.8019983216942632,0.8769888741100147,0.9548298467691034,0.9875072184686473,0.9379336115564063,0.8874527308049931,0.8604581192879708,0.8516202346623392,0.8646255139692556,0.8606191187486434,0.8623569119012933,0.8673749756566309,0.8676682691697748,0.8663263446869867,0.8464299699933229,0.7979149623588024,0.7396933058363107,0.6787178415271671,0.6176059664054412,0.5542523979151746,0.49992813266817193,0.5013024057090825,0.5559360263269739,0.6124788825543044,0.6664777510809974,0.7196217416387245,0.7619932929059756,0.7878752047745852,0.7753522981119669,0.7169838792665097,0.6435920795956471,0.5690377317943063,0.49024407948981796,0.4205381232844867,0.422586632521341,0.49845782174170994,0.5788284964665495,0.6546181888513263,0.7318627978143679,0.801175698837288,0.8701247032157238,0.9460566903679342,0.9877150022893264,0.9446689097726269,0.8948140845947397,0.8672038562117543,0.8579427652637981,0.872228300747107,0.8756707900911249,0.8756897084898341,0.8757097401502192,0.8779222396962105,0.8827033076514843,0.8684307665370221,0.824531019286036,0.7646201107342498,0.7066492094289885,0.6859805785215622,0.6461397839890872,0.5920260403752258,MI
0.2074536629892454,0.1886476320244439,0.18322839889382303,0.20402714716877313,0.24098196705414665,0.28266870030517177,0.3306999204729322,0.3618239367015703,0.3398915677114016,0.311271953004693,0.28037693678140796,0.2658965985564672,0.25808708023815363,0.22843250099160306,0.1722134146960923,0.13176572680614518,0.14529457402143775,0.20355227026228828,0.22066709896518466,0.1602812151242592,0.10291099289834182,0.14868287631555033,0.24037159628336724,0.33625546656600447,0.4320577075459817,0.5179054725827594,0.4967465207060928,0.3976781063846233,0.2976976443218975,0.1971850640762196,0.1149696351746794,0.05472629970235188,0.028447189421884733,0.010315616909560177,0.0,0.010210360697982868,0.0508252761735184,0.0988896947947473,0.15403776468552177,0.20877715278401876,0.25599786535989066,0.2756634595384888,0.29081429460253494,0.3140584974747309,0.32877375020094046,0.3456642409250361,0.3548283101550429,0.3155410294522909,0.2818965626550165,0.3068425762767619,0.3696138131203477,0.422576028182299,0.41333690465208184,0.3423929828046792,0.32494757143612807,0.401944217309699,0.5075267302874864,0.6086815794098586,0.7016391530311257,0.7454614646228315,0.6687934628666823,0.5722887194319011,0.4758645113860016,0.3819364881534759,0.2986333698209793,0.2434859937777687,0.20870925415761787,0.16035466423881095,0.11787617094757818,0.09629048323518541,0.0954269313716325,0.12846087017552454,0.16870088130231276,0.21639731772522364,0.2519994684669178,0.2304562096386169,0.20107960547543113,0.17472718724445402,0.13659805629970423,0.13338956416054604,0.1182928112745012,0.07072715125409701,0.03360105324489959,0.03047674954333779,0.0957125714578253,0.15067796993629612,0.16418325653515708,0.10951487934017479,0.1190940176117885,0.2045144488999866,0.30188993583802315,0.39786149357473866,0.48414848166291113,0.4645045514579249,0.3689722706405787,0.27329973817872855,0.18415155945106987,0.11170371441392968,0.07010094203406103,0.05436940442032823,0.042426813282838705,0.05560655517907698,0.09591482960935416,0.1495682052225802,0.20711813713269445,0.27410464242307375,0.3394745046654397,0.4055639886058904,0.4450028720025361,0.448558198801555,0.45575693766010916,0.4873300883057019,0.5256505763757762,0.5648675288919613,0.5804800511634589,0.5458213582728781,0.5067447173508741,0.5365576078346006,0.5991372206357788,0.6247721260920973,0.5720595703391615,0.5043160671981064,0.538264007127891,0.6274943666067156,0.6804678186425566,0.6731276920210196,0.6329486751263378,0.5837514240908979,0.6028996371347208,0.6363560636266956,0.6242580986626791,0.5863131880343815,0.5473899354002807,0.5130161910674635,0.5021881264426957,0.5011525584060599,0.47767710170321154,0.42045097310279544,0.3524946491082348,0.28130759089630697,0.22163269555953358,0.1665494731741073,0.11448639095255331,0.0963613148740774,0.10131192284783141,0.11603271972685736,0.14525263868064764,0.2212313870889937,0.30313446608632777,0.3802007828056473,0.4759480653069814,0.5754072988368675,0.6751179468726307,0.7696832346261737,0.8500665430564389,0.8354655767170067,0.7452156238657368,0.6376025923834514,0.5374657848195188,0.43946963520318993,0.34526449873969955,0.25797952272391367,0.2415956551790206,0.21622149148405256,0.17764922524457116,0.12033229993191297,0.1036250045377094,0.14860984550679213,0.17066935027548524,0.1727338073519844,0.2026160801817425,0.2359071280438485,0.2633639042131284,0.29358092059037677,0.28795132686980773,0.24781688563887627,0.2025531415077082,0.16220268751974576,0.14375822849833408,0.16445117659095443,0.20237752362149086,0.2504992338898875,0.28388984218712876,0.34695252091933826,0.44364272474428956,0.5397187272032675,0.6356667495375339,0.7325612728684483,0.8287340500857052,0.9231515606195431,1.0,0.9814753983572637,0.8813109395874217,0.7748736013526898,0.6786580874431745,0.5838919685233823,0.4975586269815788,0.4832464485310375,0.48489200593039206,0.44719050723482656,0.38849753701846357,0.33417451414060295,0.3608363132334307,0.4072564565722918,0.41029663599581045,0.3974017219579986,0.37557899748126067,0.3504091003450216,0.3276245623197278,0.3223230522961882,0.3030368239478496,0.25520974252545026,0.2011430037160209,0.14849341613246647,0.10120357812259684,0.06766796667123165,0.04861829381593097,0.05677271981629328,0.0784788852005538,0.1255116107195735,0.2038595973731674,0.2943869020361274,0.3930593582844035,0.4904370845042276,0.5911836968912616,0.6921943532907506,0.7958364538336675,0.8625345950262413,0.8228585724401003,0.7250506328693902,0.623694243490371,0.5178976868382525,0.42315085821841647,0.3293267874091792,0.2453957808776983,0.26204584446152346,0.2802575752346175,0.2567824212191776,0.20178758025244603,0.20080630297430702,0.25654305695105517,0.293690411963619,0.3023449035144017,0.3225061014011601,0.33830397410481217,0.3679999329933876,0.3970143580749004,0.404381323986867,0.37761011065359007,0.33105579010098785,0.28974410580598065,0.25000333634820837,0.2255390074016379,0.24162227392658808,0.2663665303337446,MI
0.2556619388296184,0.31087851203720396,0.40309365621870574,0.46731602489013424,0.5265165332275146,0.5402153472354749,0.4619335350802012,0.3592997184931628,0.27052623757629,0.16468450832180848,0.07566845145581147,0.0853027245565432,0.1861690382833565,0.29662857349952,0.4103779711656652,0.5228764152467322,0.6359890017237184,0.713390295405834,0.6767097145293977,0.6046520747759536,0.567404845193769,0.6165002113774491,0.682925231985613,0.7534321246023556,0.8030467339229297,0.7863965598437521,0.7661682439859709,0.7983550723334978,0.8642715784239288,0.915956590037859,0.9067841848664071,0.8623529768281171,0.8147266961899202,0.7791571404729543,0.7487784964127822,0.7266072273327366,0.7212608120281918,0.7017667305094486,0.6706872366439809,0.6454216964911077,0.6937735974843728,0.7439395480357991,0.7379542811783586,0.7042176766908512,0.598060919161687,0.486101345141297,0.3762299375685467,0.26724044904908384,0.16394161197876223,0.12465251612267769,0.21000283033806744,0.3236732604050645,0.4319619509988222,0.5266371610070162,0.6396447982099285,0.7491779179266786,0.8137501508594891,0.7677897714271911,0.6911469810239073,0.6463026741800393,0.6161195359543199,0.580780894353194,0.536558014216229,0.5034554528910982,0.5185976498018054,0.5835683830866678,0.6651032006545479,0.7346368816655326,0.7849383771860494,0.8139994932328021,0.8261312279713628,0.817113345241792,0.7900221599160795,0.7626443340567284,0.7279874163497224,0.6773885979756589,0.6231198236331355,0.571824191358099,0.5729082717944056,0.6097971997146296,0.6148142667144527,0.581536078484417,0.4668322314094686,0.35361124280673595,0.2429043415531731,0.13268146540067738,0.02976144098555844,0.0,0.0781567938985015,0.16996152937250741,0.276955357038672,0.3979132268596639,0.5198763210243906,0.6104217495783457,0.5807544972120628,0.49405821601902744,0.40094723319000636,0.3313666229273471,0.3009675278263373,0.28593195694412943,0.25871970584655424,0.24580752103692216,0.285872635013535,0.35531828374259566,0.4342009313789683,0.5079024261789882,0.5626461107383776,0.6013891351195326,0.6471708366915752,0.710322049955388,0.7781708210794758,0.8454718195643678,0.9001453945786007,0.930899162754665,0.932499981602172,0.898519927422802,0.8556646757502802,0.8304178975121275,0.8621194428881709,0.8576922265544988,0.835751172279791,0.744310454277124,0.6251690660392941,0.5054905286260465,0.3960952108987632,0.29090447334574465,0.24181051554785737,0.3133998425694151,0.42770737980057305,0.5385881974220603,0.6559539540611543,0.7673602485959385,0.8879797722639959,0.9924066467441457,1.0,0.9018542327035894,0.7891944321205835,0.6785507100150143,0.5621248073548806,0.4563220797009757,0.44921866736948646,0.5530043980261921,0.6652823925294244,0.7755209139100052,0.8804110431766299,0.9304476722150756,0.9281583358186145,0.9282946791383977,0.8927587496056208,0.9179376815063813,0.960208901876463,0.9891807533361123,0.9878716310114131,0.9628581697973195,0.9173535870397327,0.8517267730351596,0.7832094495755357,0.7165510612228139,0.6638199796629864,0.626052689874351,0.5771195561027529,0.5079294430301231,0.4320883128260795,0.3600720603525902,0.3071478557174654,0.3249540006288467,0.34978413958926247,0.36647109735213945,0.40142624928505644,0.48007850702167776,0.5744361116196708,0.653630031160727,0.7159698659422284,0.7328114203808971,0.6435204211310159,0.5314409579438681,0.41882861210068745,0.3063492346003267,0.29700722717039074,0.4011177220977644,0.5129034892110069,0.6180219205694519,0.6767306259623909,0.6825079539201857,0.6744646949498256,0.6292234042131248,0.647586599013954,0.705009766562537,0.7600508648654092,0.8007042967079858,0.8318261578476203,0.8614842196565733,0.8806199459229558,0.8805109215799063,0.8618086990330434,0.8267273729696805,0.7736745361518791,0.6952911866337868,0.6182909420403169,0.5716100183243893,0.5936998184768272,0.6335268221745731,0.6710140823001476,0.7103986677421563,0.7508075427164274,0.82593022061539,0.886753462063135,0.9265011336379656,0.8977274632917411,0.7969810416650032,0.6766155466284856,0.5569935481254382,0.4460460132041626,0.341552583846648,0.37123124799431295,0.4794634483033686,0.5947912067152723,0.7052462159040478,0.7964324145726112,0.8107843997520443,0.7969153666321036,0.7456227999244454,0.7287574152200027,0.7557336285434437,0.7780055275624327,0.7821321186510493,0.7891274166554969,0.8207518034881542,0.850649854364057,0.8892706126620209,0.9390004638082932,0.982428210240434,0.9716629122297871,0.9148933403255941,0.8496278578246468,0.8352236119538814,0.8677132377655274,0.8648521019382134,0.8070140420978249,0.7358069066523463,0.666235910647337,0.6516841538277163,0.7205013590738174,0.7744942217582316,0.7876201405991039,0.7081014504092327,0.5970943893184235,0.4882695954924685,0.4397464792779777,0.5235101811667136,0.6167085877283367,0.6301171269467227,0.6105345633107233,0.5787638504377131,0.5133762099713115,MI
0.3823153223562249,0.4210091915989126,0.47009277382388304,0.4931359598924635,0.48069372217022643,0.4312879050880708,0.39375875067716903,0.3782208917086821,0.39866792169149157,0.435770031527292,0.47277439955754874,0.5173260260850255,0.5478049596650229,0.5827133565134855,0.5913008011084891,0.579530611208774,0.5548279953699747,0.5463363792192865,0.579061194719768,0.6058528178993877,0.6291477833322935,0.666368584277857,0.7166073208088094,0.7200007645234131,0.6635098655196959,0.6034020578158267,0.5540305981273072,0.5132389267344487,0.48987723251280724,0.47008528302075503,0.4569516479041692,0.4643977128193787,0.49126777527186116,0.5310059554205707,0.5728455438422425,0.5918560105473304,0.5869925675856248,0.5589397164444868,0.5327724827019739,0.5481885072103684,0.5665289682581948,0.5705901444506892,0.6091130972810005,0.6575410519578729,0.680709870654553,0.6327871120899095,0.57587183184371,0.5254633043208156,0.4876566386835851,0.4705113579216492,0.4661038749662044,0.46176287407727334,0.471923425968383,0.5053203154570501,0.5467731496304736,0.5776027093250372,0.5856334686154826,0.5892987418560974,0.583844161903441,0.6113555074451117,0.6383170718301135,0.640868526356467,0.6721877892054701,0.718873537887717,0.7285657636905044,0.6789428731995587,0.6240866316352162,0.5979641101125927,0.617174229856439,0.6209478662455049,0.6108547509729968,0.6046989809916,0.621035350135284,0.6552111325223396,0.6802809954241614,0.6653634924738062,0.6308149847157468,0.598032421692719,0.5667377454832584,0.5462509906830458,0.5709393957133234,0.6179714032236069,0.668285674496134,0.7156618995630509,0.7554508097365661,0.7890568415093965,0.8378144235781181,0.8881696600648378,0.9211170428883247,0.8890742595273505,0.8289622525997066,0.7776823348977507,0.749002537510204,0.7371053340171075,0.7060699688639024,0.6629102612630714,0.6156260932779863,0.5640124468963624,0.5175068726215687,0.4704495335970461,0.4156900121966661,0.36523071260857864,0.35437213362465025,0.38586001097262723,0.3861090742005956,0.3310053555796971,0.2700632242839188,0.2128710417094739,0.15811774705836057,0.10159966808987486,0.046644023521751676,0.0,0.01856945323573045,0.07358806282092856,0.11142405474193517,0.15624111515574846,0.2056840451727342,0.2618041407904582,0.3202973894026161,0.37424156459105007,0.42849846389737734,0.47687192939983725,0.5223772555094558,0.5629199505519603,0.6122534029441818,0.6448434047700472,0.6154075927492114,0.5756470830824131,0.6122337680475575,0.6744647316153477,0.7404757765382447,0.7696297972184846,0.7283806559098799,0.681256083455067,0.6318141853067679,0.5854811830344148,0.5442865653583217,0.4992038525080319,0.448024297358773,0.39514106808820026,0.3434574371448288,0.2863990937868953,0.22878856759941268,0.17769129519016225,0.1361176128528485,0.10470571158774356,0.11496689864934873,0.1750714374668123,0.23061169922752922,0.2888406769847319,0.3493649590535918,0.4074263110186537,0.4384704018444866,0.4232454897451302,0.41079938435314756,0.45811743277653594,0.5117977957574006,0.5562397917667653,0.6012535652433743,0.6526815141846601,0.7010353107133461,0.7437286920263068,0.7761777797427597,0.7909705050196182,0.8287020661142518,0.8926785819222803,0.9527809010345026,0.9999999999999999,0.9842461967832518,0.9317492927349774,0.8840948763414217,0.832628360184318,0.7970767090957941,0.7616907997285002,0.7155004203350649,0.6692257095824562,0.619804645052009,0.6082095782428732,0.6351322547433241,0.6691942056082859,0.7048976574019704,0.7256078533353781,0.7073470190218328,0.6736764239027909,0.646419722406841,0.6489735621449017,0.6627157404519638,0.6602620779866296,0.6513183818727984,0.6950015775874822,0.7539431648369642,0.8149989953898041,0.8656913796812181,0.8500430424576652,0.7935631072747894,0.742743084123142,0.6998721269465075,0.6840677492097093,0.6608806703457889,0.6268741817876063,0.6252100000659077,0.6297132507664952,0.6254052475619957,0.6042014565283683,0.5687452205360145,0.5285001658451906,0.5077263871231653,0.5080640908650852,0.516686342826478,0.5364948781679592,0.5818450238239706,0.6383938713042209,0.7013368406250179,0.7649867785082053,0.8093545390060307,0.7839293627106959,0.7247245348102459,0.6751474952023587,0.6313613072930343,0.6113225940613664,0.6038605709808808,0.5757726791323802,0.5763100129665221,0.6066970967088109,0.630464535606991,0.6369406907700786,0.6192437653110817,0.5818726108035716,0.5397050152123265,0.5068884115551003,0.5032945521793185,0.5180215374540985,0.5371612847361552,0.5670502194185819,0.6156226317220465,0.6755436408390695,0.7364556134148547,0.7972973180011519,0.8507306710907242,0.8470873075639039,0.7911574037780261,0.7436277182293703,0.6936728030378064,0.6575085832481219,0.6375618569284048,0.6045034299726956,0.5977988705651053,0.620089574661897,0.6336752219660876,0.6303617102592681,0.6033158515198235,0.5654090189662399,0.5426087282593549,0.5526889593176493,0.572824581677812,MI
0.8144070718590952,0.8056283998293985,0.8062473860053752,0.7998570027750596,0.7951882983654386,0.7918878482141025,0.7907800969960381,0.7963968175438185,0.8105620823847883,0.809019711165583,0.8218437449363138,0.8144525090965602,0.8023980583026962,0.7968694753456727,0.813625486947227,0.8573247152463055,0.8791350473885733,0.8285348964040882,0.7467960522426562,0.6570516349414453,0.5720907210762398,0.4846236852661985,0.39929775848225235,0.3282483073626392,0.24810070616656676,0.16534729256794845,0.08634478852193062,0.07116402754325968,0.1384068808065777,0.2297695699818827,0.3223826721368388,0.41320223356293884,0.49531408941710997,0.5430478753753585,0.48965152294152703,0.45110285613941814,0.4376131469997886,0.4206607495230066,0.3863608391247648,0.361840659693653,0.3431490589712216,0.3402039356395108,0.37612745256613844,0.42635886324446504,0.488026257807763,0.5575055689522377,0.6257279293403966,0.6912936245206023,0.7481713746156351,0.8005267237020592,0.8097357268587477,0.7994570642238066,0.787136137128182,0.7848527858111769,0.790817415934685,0.7967222983771318,0.7909925368715616,0.79380159855168,0.792428737422429,0.7856675558384256,0.7795952763007623,0.7851989959673582,0.7931710295515075,0.7764666750687619,0.757523526634893,0.7602429075653263,0.7709639377907487,0.8079937072435888,0.8082239610323572,0.735987308638435,0.6512684653184362,0.5604237330897135,0.47757454193762183,0.3884179606985103,0.3055343337840781,0.21642606743566373,0.13348894896267094,0.04425986832779816,0.0,0.053437587136258013,0.1428484216118815,0.22584652476875156,0.31605925199204576,0.40197940382900854,0.47345812596173564,0.45022436023994583,0.40818591460242915,0.3921977472862812,0.3660304509139094,0.33630017611352336,0.3061269854467641,0.2882569552344254,0.29802162817630395,0.32794270129891734,0.3859105949870818,0.4422495805950619,0.5077803789051787,0.5725586597912007,0.6448688027801519,0.7117955865426904,0.7553378757035376,0.7698197726587015,0.7753294890462485,0.776158539693613,0.7711344405824998,0.7762741011100065,0.8016728511430662,0.8261576558410821,0.8347960796619107,0.8495111246426998,0.8603833364426752,0.8723355278823424,0.8832711558281838,0.8719221281852767,0.8511895240904495,0.8579301562551795,0.8881278418263285,0.9355884478666949,0.9384964233344855,0.8691051213963048,0.7867858018718707,0.6988432873074157,0.61490614573807,0.5261516175479659,0.4382543675365518,0.35357712588743073,0.2648804040049686,0.1827797762372534,0.14370095093193003,0.20182093616147112,0.29037988235413725,0.37631529104511907,0.46285378137004796,0.5511358351592168,0.6088254380131093,0.5658642818988526,0.5186869940012446,0.5663202555639848,0.6432602550253002,0.6980052125510139,0.688564558365306,0.6187885375493671,0.5355259803854793,0.5060150784583539,0.586141424338023,0.6710734871150179,0.744366137610974,0.8208573503333136,0.9029975220069466,0.9757992272116813,1.0,0.9752659037721143,0.9310815033657773,0.9143581845608084,0.9264165929677,0.9304853507709203,0.9233540291604405,0.918562271330154,0.9022753324653738,0.8855939987200059,0.8613458814221491,0.8419257880234681,0.823300068973968,0.8264911094680136,0.8315246635533664,0.8210935493644795,0.7981039870801498,0.7520515396069944,0.688129366272852,0.6212337967262336,0.553859752863147,0.48797400923576517,0.4239429016478349,0.36742468557417207,0.3386573958482244,0.3417510763078879,0.36581411513876416,0.398527223767009,0.4212253188227584,0.44786801151680433,0.4761809627685194,0.5509278850985666,0.5920662477236434,0.5507813578227942,0.46872132260778465,0.3897104599637089,0.38144651263698903,0.46113073910248237,0.5389968635378457,0.6209233116486983,0.7129617972883109,0.7967443155107472,0.8610692122115928,0.8701180730504379,0.8429168562345195,0.811612236537707,0.8134600823371199,0.8356622965049523,0.8411343510382481,0.8338114884246108,0.8303402543981009,0.8411200361048965,0.8393273407026491,0.8416955396668451,0.8451999768462377,0.8442521507177987,0.8399461610060279,0.8321432914909672,0.8380576374752517,0.8487977623262442,0.8575351346971538,0.8534820278674755,0.8246950834461355,0.7730768258531624,0.71652149497181,0.6468327846220272,0.5741665732609484,0.5124737211862729,0.45112702789021863,0.4046261056753009,0.38650368013114256,0.40172833246739703,0.42647575327168097,0.46048350190881493,0.48308320135575733,0.51076168496315,0.5606295118057236,0.6253780852343254,0.6314409767543046,0.5611397490304273,0.4816788049676488,0.4649179997022277,0.5478184203145937,0.6346753507835263,0.7203153138373812,0.8095028000583371,0.8863903974877165,0.9318634737301412,0.9251996790674646,0.8888236467709176,0.8471234148249702,0.8449465823677422,0.8579381050667436,0.8679421731969201,0.8643810665438028,0.8558655850534986,0.8428863612128561,0.8402936033988353,0.8586253056605777,0.8470697444147186,0.8499701500813783,0.8479760634008273,0.8527477617927524,0.855369437544709,0.8717662298305333,MI
0.4202480222539071,0.44684378965409,0.48256923357261394,0.45899137066463735,0.42688565243338905,0.4509696223236872,0.5068536593310473,0.565565185770668,0.6279622399150173,0.690170287530677,0.7411429976844393,0.7818080097568192,0.8040503300737436,0.8098051968360693,0.8135614898946342,0.8144402527878933,0.8067446699366134,0.7969895511858387,0.7977073641536376,0.7901583319772081,0.7762728345210432,0.7743411699331346,0.7573466224657268,0.741830215354085,0.7398689436569104,0.7469288877423734,0.7400727557555578,0.73128555293387,0.7496944331099562,0.7768323841451645,0.7969797572781134,0.7961687274136902,0.7633283988710209,0.6930926544385452,0.6170135718760299,0.5429429493038491,0.4632023135525065,0.39024824058061114,0.31106127224246016,0.23731686795569384,0.16354318045498606,0.1316729642595249,0.18323595908393653,0.25576635013595417,0.3344647378130303,0.41571027241726566,0.4927312594738651,0.5660407000305161,0.6371711038973711,0.6918809699917821,0.7172106887158418,0.7050142205414662,0.6934719131428246,0.671526995374524,0.639648870224933,0.5970531290820513,0.5518516567835943,0.5026720171763925,0.454391030777352,0.41415882493739353,0.39445614578729615,0.4244176989766526,0.4751698547015899,0.535442599146402,0.5986915142629048,0.6615611385873261,0.7208121953742372,0.7726388019038843,0.8123168100730624,0.8341061232667344,0.8508367085573074,0.8724849503808481,0.8914976848088714,0.9078808030573546,0.9231787244332377,0.9436344061878057,0.941036251930097,0.936523051275792,0.9519857921119554,0.9274242265770096,0.8678185304904396,0.8196559645913983,0.7853833313896939,0.7635838578330072,0.73687583801112,0.7171803305199014,0.6963826554798567,0.6902774014841955,0.7245087864330344,0.7356243007809613,0.7005722267865895,0.6781945013105548,0.6364261923703487,0.5663689375124059,0.4902666139892482,0.4090520496263623,0.3277396508374921,0.24776085258554925,0.1748388112868866,0.09677676406720392,0.027202617949130925,0.0,0.051049737212433444,0.1278326514590573,0.20099626334278642,0.2797120733116074,0.3526409606612688,0.42821470401806194,0.5030872008080212,0.5721948648273141,0.6122381513691286,0.6323627734636228,0.6200540375103738,0.596754441424832,0.5721723120952615,0.5358798173636994,0.4947006626172279,0.4492774939849242,0.3989027362492532,0.35417614029514444,0.32755002563212865,0.3465099189393501,0.393021514129001,0.45084512121712494,0.5113455442242119,0.5763020347913461,0.6340704855708663,0.6886113515505325,0.7268264428967264,0.7466681418732217,0.7500940631730078,0.7567046036171643,0.7800047874749587,0.7891429560799808,0.7857770088137839,0.7794344456662805,0.7519584565338029,0.7186969470021742,0.664899203870148,0.6009071670551791,0.5411721796445363,0.4823726867438134,0.42332323007505535,0.3773790308946159,0.3845889841769248,0.42526598757240675,0.476204030766866,0.5233839541461747,0.5642103997660846,0.5992040840067723,0.6236438462474214,0.6502590243308579,0.6701834644974922,0.669158099214425,0.6497801392630072,0.6106414265573532,0.5565561881576158,0.4839333699772206,0.41078369349427835,0.33589639381203784,0.26277718272733597,0.251932262913638,0.3187199214978331,0.3985880082964983,0.4764663356725116,0.5385363967939545,0.6012492024016993,0.6733283026827575,0.7286484953460168,0.7208694031589316,0.7401514429547793,0.7796816984657455,0.7820127496032543,0.7525737796654686,0.7342817400275286,0.7489402046501636,0.7715365101636078,0.7968100764957167,0.8205259909082325,0.8614765202462669,0.9195143793296106,0.9782782901699665,1.0000000000000002,0.9822691262039991,0.9734144972853069,0.9849012803640929,0.9728506237598669,0.9542454569533654,0.935154902579044,0.9171247788950201,0.8997404511190095,0.8793097503094038,0.8644139314482635,0.8396869576938404,0.8007290658402026,0.7498660482545245,0.6917497173831471,0.6230096446543361,0.5597741485049967,0.5032781080813826,0.4541736000720835,0.44454209659748356,0.4840795719847266,0.5317996251691559,0.580653175856868,0.6264688984826745,0.6668165947744173,0.7004998946545489,0.7238410747369639,0.7405698603139255,0.7529188666291344,0.7527660148798787,0.7195351249521651,0.6626563703834287,0.5910007831984332,0.518178676280244,0.4410856317076881,0.3698325584799844,0.34879280613928665,0.4199742828324611,0.4944404621006546,0.571640863251516,0.647909724935035,0.7214373945392476,0.7920115557976499,0.8477852921262012,0.8447236710725128,0.8374156106787778,0.8253789679467125,0.7986574277752354,0.7708689984185495,0.7727482867920288,0.7745919583988106,0.7746425896703337,0.7791883366044461,0.7959185669475637,0.8109322297677628,0.8126734043849968,0.825653400230417,0.8351352607283715,0.8392916285820942,0.8448300378912805,0.8508069357852857,0.8482847117879813,0.8484199169314186,0.8416221108738273,0.8290173139658803,0.7984215983815577,0.7545093114537131,0.6947720313896137,0.6350147267966231,0.6111004209033037,0.6030505246162112,0.5449867473313172,0.4970768995366093,MI
0.8170739967854741,0.8561284527580699,0.8797180512654494,0.8871149475266511,0.8736336893187178,0.8102734307150798,0.7266872316411963,0.6501754055978124,0.6000820305204086,0.6240560641548669,0.6535852069507302,0.5751528606326823,0.48107113763982534,0.3938742292247668,0.29764668423524787,0.200778787368723,0.11154070153235929,0.025514357947311384,0.0,0.0715437501693219,0.15809917447661115,0.254044081016372,0.3511773517541634,0.44828226543313754,0.54147968274409,0.6293262838931841,0.7242925954400448,0.8093801640039324,0.8843930578615058,0.9270173947571954,0.9349479200302884,0.9231251026952385,0.9078604522501885,0.884873476954658,0.8483188851799148,0.8062643265261771,0.795583826524634,0.8037444202417328,0.8226300170211733,0.8597758967593829,0.8585108106998576,0.8429823343447616,0.8430508199864739,0.8521124479900009,0.8689003809008684,0.8615949154416171,0.8664247086075958,0.8613015843824188,0.8293315504465422,0.7909615008620243,0.7561764056577023,0.7434634811293226,0.7646732821410567,0.7601734124711197,0.7511195867277236,0.7443462535596364,0.7159633417507345,0.721658159043008,0.7626290433598675,0.8222087418899238,0.869338092311873,0.9020825003098774,0.9471331352502277,0.9489505941162315,0.8788439332065157,0.7919666404538133,0.6959342053898598,0.6069846297748398,0.5151188178113584,0.42032615408678353,0.34341284592201515,0.2600723689315616,0.16809453354451542,0.07557155255402881,0.02360127543334034,0.06800964264676268,0.16081982181390475,0.2488736544510739,0.341774936565846,0.43887524959950075,0.5360100269903476,0.6330405204973413,0.7240033685629956,0.8106815178891045,0.8894431098404103,0.9264083839391131,0.9198054782726006,0.9108031553993021,0.8930842815564233,0.8711843815496942,0.8520090329088659,0.8221873955739432,0.8017355716587076,0.8054561740286827,0.8253520451755552,0.8653108023677929,0.9002110058500878,0.9080710508173759,0.9116896028440615,0.9219734463559857,0.9281469935579543,0.9115911569432431,0.9061772212980828,0.8982001104322686,0.9021684873398879,0.8946958064444168,0.8951006292903079,0.9036793258597224,0.8935926095625899,0.8577300505509491,0.831079840437505,0.8457327682165119,0.8783379446226693,0.9067550260690649,0.9163581883854375,0.9021392240402439,0.867614189353201,0.784632172277701,0.6924755266319786,0.5955603912543033,0.5054285567721672,0.41482678487642244,0.31783100786180674,0.2231624692322942,0.13627990356058706,0.04755055557641508,0.03365970526153084,0.10961584568201044,0.20478939226895787,0.29171033122579626,0.38632983670895094,0.48285488794941145,0.570567772941301,0.6632946392969246,0.7506345397356504,0.8350702592672079,0.9074356640826144,0.9456097353657584,0.9397396356530023,0.9254946276803497,0.8982767970659731,0.8752100872817452,0.8525704869199047,0.8922910941280857,0.9221177971423413,0.9474423741020781,0.9693210335693869,0.9815624704063575,0.98814647974318,0.9654528555437023,0.9088205919148125,0.830807396599232,0.7442035545253713,0.6555541713365003,0.6281453222212361,0.7125645479303733,0.8061456207691642,0.891180408324246,0.9560100237725411,0.9622602833595348,0.9576756001591848,0.9505724057529059,0.9268144947375732,0.8868425530537032,0.8855441864307447,0.9255642901848808,0.9477576523058409,0.9442169330724572,0.9311188929740906,0.9437589289647421,0.9427051012565408,0.9421487915034612,0.9491361781339014,0.9505849371598474,0.9658957610438879,0.9668800182157578,0.9542584355242341,0.9568680294796288,0.954082559220488,0.9353439454453885,0.9036556077992268,0.8681306885246884,0.8516963205491133,0.8631568792456548,0.8895298571706827,0.9124567014322771,0.9283938072404518,0.9505353526454228,0.9603405938063465,0.9661400043096238,0.9545466804787919,0.8928519711489888,0.807656189557896,0.7214510852450509,0.6271646157944855,0.5455268652115488,0.5509674426370574,0.6429068084961356,0.7317265813995635,0.823033588315617,0.9097148524740113,0.9831218298172952,1.0000000000000002,0.9865450469853594,0.9442727219947431,0.9102736791926482,0.8663062792158425,0.8038687421640176,0.771564261244871,0.7859620923627906,0.7979816160055437,0.8028705099221998,0.8345641262852437,0.8095568377536069,0.7959701681210294,0.8137196525026005,0.8459346434823873,0.8853011320548763,0.9114069352247929,0.9218435057002596,0.9093530461677195,0.9243822103308126,0.9198535952850502,0.8923772411656856,0.9015084122476698,0.8984161595740423,0.9063752935448257,0.9094952773846947,0.8839809957505851,0.8523073593804262,0.8370730266132786,0.8575939589642807,0.8981004068798539,0.92787998073309,0.9472158970099727,0.9617254540878324,0.9750433660022757,0.9725078033113148,0.9487833683608258,0.8949594674465005,0.8106800976351509,0.7218598720643563,0.6338856480334278,0.5417780128648453,0.48683339424493144,0.5496148024968013,0.6453258841595002,0.738757505774635,0.825643571684006,0.906973158635717,0.9340474379295303,0.9266492426665736,0.9161817847489753,0.9026015218292402,0.8600983033453999,MI
0.5388720155131524,0.6030331470103196,0.6691992766265454,0.7194989937344192,0.7676562572680542,0.8070017753208629,0.8233895554968751,0.7871116824190791,0.7911127967052596,0.8516603685518023,0.913509970860586,0.9603886978721161,0.9620745712933438,0.9543077091048622,0.9354535830470443,0.9050112335679545,0.879735503893325,0.8803130785848152,0.8995199263108702,0.9127096493838973,0.9079956685645145,0.9093288871830667,0.9198776691031898,0.9123748617702867,0.9080434699926718,0.931068605189938,0.9320483453130199,0.8795701359781973,0.8121541915657893,0.7468081148336895,0.6790453931837157,0.6098296635542089,0.5448096408692967,0.47781262163544336,0.4191456760166259,0.35664125600802354,0.2874047254773595,0.21885041828632026,0.15394668214865778,0.08815690469162527,0.06934676270278264,0.1242053492673337,0.1891661500031727,0.2584582171748041,0.32820819941220136,0.39795883448518043,0.46770944019807315,0.5372673260404581,0.6030696459721822,0.6702604103499057,0.7376413015733172,0.8031173584028442,0.8683965310155568,0.9278429275111773,0.96991110271592,0.976447640529484,0.9739002526012099,0.9582047904539606,0.9282438839302685,0.8984516846755506,0.8960999922370458,0.9144153735741221,0.9222219994698169,0.9178111301987641,0.9179291670338925,0.9150594441520017,0.8960749032808975,0.9011138696590282,0.9153827670323724,0.877750430896828,0.8138149068601723,0.7468704800119272,0.6812737902052112,0.61205512398249,0.5466284936710883,0.47894634124022717,0.40937848262269794,0.3468904913662898,0.29320828115628494,0.2374004715368854,0.17674634133542508,0.11083280936033577,0.04478037698387996,0.0,0.037784910780541,0.10215024097539196,0.17144750019193025,0.24109116327809185,0.3074179100042954,0.3705679499714014,0.43098300632028774,0.4936461638037669,0.5553620961884199,0.620075089840694,0.6889432795636781,0.7544421875125877,0.8194514660998482,0.8803411927297851,0.9148840399884983,0.9069579361523181,0.8949789174191736,0.8731765501137922,0.8442931018250261,0.8182205228059722,0.8186416709117852,0.8416407072594845,0.8617955160563766,0.8737483038383416,0.8827440396639152,0.9005480905557373,0.9121912870176336,0.8995227717456677,0.9010313933898728,0.9272528267711484,0.9245348614249764,0.8685502707277251,0.8038351619648951,0.736345141146746,0.667513089843399,0.6026503194694752,0.5338293205897858,0.46502869461672913,0.4001699572454681,0.3313002993206805,0.2633505244778157,0.19811915853588832,0.12894447383733096,0.06876268709622688,0.07326170475583896,0.13682106057977886,0.19549064652115897,0.2519868371660263,0.314590356113683,0.3835688282810934,0.45331035501359185,0.5217882761233189,0.5867310966896451,0.6554612659766402,0.7206344770773527,0.7875389806908522,0.8519607490729537,0.9137732603951454,0.9591978823005496,0.9667610299178553,0.9603908616044645,0.943470407594859,0.9359969627414342,0.9625632738518717,0.981403977317939,0.9874519018457291,0.9879863518215086,0.9604030727513457,0.9072854230183709,0.845219634745227,0.7788494554451069,0.709192430214439,0.6395166837144688,0.5728090667504281,0.5065336487300427,0.4378907079840426,0.4086380140562763,0.4638627859404586,0.5286438990165491,0.5974714455299862,0.6659096449198443,0.7308606449063784,0.7991238740295115,0.8638616786725681,0.9285563919983288,0.9731523013498184,0.9605348300380168,0.9340844664900192,0.9191460913129441,0.930221049930857,0.9243208964365806,0.9075391234307753,0.895201421109892,0.8874592260860219,0.8688662355160024,0.8455731872299863,0.8365524648565525,0.8602797503590709,0.8897599641388192,0.9106884391447922,0.9232360832619795,0.9381839414024034,0.9304959135783812,0.8837907604347097,0.8218446283026428,0.7565221370800013,0.6900000171271601,0.6236164162801152,0.5571025805660038,0.4875621856638279,0.4343860564254588,0.4685161536900607,0.5374059579467293,0.6033844547305033,0.6703958207049169,0.7384260252505443,0.8035306929837023,0.8702874020246687,0.9314558568652322,0.9540969912277393,0.9383472635029735,0.9180279523877135,0.9222201961487833,0.9372969869746346,0.9359773044299804,0.9376277520440719,0.9435480478305704,0.9387446519358853,0.9224543158743053,0.9197813160487529,0.9490648167505995,0.9798728907735108,0.9960491265293394,1.0,0.9972310435100178,0.9653008802768022,0.9093823952192237,0.8426875424054661,0.7773011664663305,0.7097144041348816,0.643310819961238,0.5767608048884307,0.5071453533048872,0.4472255323966252,0.4589696319146954,0.5100024004437765,0.5570090760359263,0.609827004077379,0.6738121692092264,0.7431963770007417,0.8103700068450503,0.8755082852769944,0.9389388489465502,0.9793603553593364,0.9644140854363861,0.9381091521729457,0.9280126636473902,0.9418289042539474,0.93644533312087,0.9275725985381387,0.9307397579501713,0.925428525347221,0.9095308635975494,0.8998871271164943,0.9224754958124326,0.951742631158611,0.9717997326461769,0.978819892729583,0.9870019559405869,0.9727639209103216,0.9302409710249286,MI
0.37648627695581116,0.4528625922964501,0.524828577829129,0.5761868916191585,0.6355624127020033,0.6746391557928607,0.6799175661562925,0.630117248515894,0.6510822182582224,0.7255380579072556,0.8053313027039516,0.880564626422038,0.9240160291746288,0.8827469931173898,0.8423604359346207,0.8072980435811973,0.7655351077989639,0.7162229234367211,0.6904006271399726,0.7109272600919662,0.7488157918821444,0.7868622126885724,0.8221050193273979,0.8425364690146745,0.8431978721776251,0.8500928453836712,0.8535146006680835,0.8395525222402346,0.8143879381043247,0.8082404765171619,0.8317135855785499,0.8357472688381792,0.8185437174996816,0.7728397419155234,0.7065446972786124,0.6281357615811346,0.5494925202283351,0.4670452878000696,0.38986369676527965,0.3084473961192665,0.2251977718375392,0.14478437671216027,0.11621815902946386,0.17564024126101063,0.2565918781562748,0.33525656906389867,0.41475001271339573,0.49777169577022395,0.5764253689947608,0.655610277895693,0.7332907608805191,0.8105611145275254,0.8850012591185915,0.9128112004011021,0.8627076816031966,0.8210213881005587,0.7856371925262488,0.7407188096048322,0.6955852175025022,0.6686233168471282,0.6809411781804894,0.7149158259419474,0.7435464696119102,0.7699415436365143,0.7666233760812099,0.7583045881494478,0.7688268898239737,0.7694605301100298,0.7440967496898409,0.7367870667037296,0.761571257933867,0.7715176266542317,0.754421425866895,0.6953408524239985,0.6192213395228693,0.5386468049946008,0.47007832258198545,0.4041141872612629,0.3331970882777969,0.2554059930246486,0.1728438122379522,0.095359775157427,0.018585558348032993,0.0,0.06528737902837844,0.1355916904356178,0.2059657298898775,0.2770356250795798,0.35866049045500936,0.4388750507898108,0.5168948519738895,0.5984631116739244,0.6754315027693499,0.7549154109504977,0.8296516670586492,0.874848931116042,0.8343065887217375,0.7893803680414161,0.7615711878962542,0.7204135448582686,0.6755036083245839,0.6474905456966421,0.6679890457564864,0.6989811179100934,0.7334724455642104,0.7599443811314196,0.7621374891451399,0.7697123148274453,0.7811915803093917,0.7734269132755202,0.7850900824235169,0.820347398939672,0.8284465994705571,0.807598467969168,0.7422120564560827,0.6648728059198318,0.5870474137065477,0.5070442832428145,0.4270696886749493,0.3488791181372096,0.2658992411265204,0.18635661421288363,0.11841823494688919,0.060094699760755654,0.06857727034440642,0.1388191484084763,0.21881599769740112,0.2964631863058058,0.3771105888635463,0.460164020933877,0.5357311795973686,0.6099056425222972,0.6889621937552691,0.7675546641032381,0.8455404117277984,0.914396362415333,0.9155227256684727,0.8671452424034801,0.8385473696697342,0.8009589210551119,0.7568466430502755,0.7163240749248333,0.7135749276180386,0.7430445401499247,0.7405215343762265,0.7671412567886006,0.8104443958322681,0.8523656551662248,0.8818261097781174,0.9250712237004316,0.9780256096335388,0.9999999999999999,0.9459492712464682,0.8674012668799115,0.7903020730272888,0.7134112529952851,0.6322903789737492,0.5536237177122755,0.4794510119384999,0.4780536757595816,0.5550857810525992,0.6335442482035584,0.7126521262683273,0.7888038302084205,0.8452639718068616,0.8502583845881343,0.8545319404570847,0.8321498316083921,0.8034192372213061,0.8065609933682053,0.808291470418738,0.7942642684556528,0.7895422770264479,0.7759207885772027,0.7438424001891389,0.7104176200734637,0.6832696269885427,0.6981027020162688,0.743435773911934,0.7836129267037247,0.8129969784955869,0.8569883657591083,0.923129733722866,0.9496315717367932,0.8981820391405911,0.8341722837868163,0.7656086900639442,0.6834937471859551,0.6002483164749172,0.5192496597412976,0.441819624513336,0.3617581576877483,0.3436328230880469,0.41271899245732435,0.49528370254014054,0.5730995311447095,0.6526292789860678,0.7280809818218222,0.7850359039168794,0.7963764780465951,0.7989731271832404,0.7809918341838592,0.7678361899618583,0.7918631677574391,0.8007983599141538,0.793776276682476,0.7881749975985676,0.7995306692990086,0.7896340553545619,0.764501827345185,0.7336828846420297,0.7042967879528451,0.7123926497846228,0.7537072081264945,0.8004891159840185,0.8360406140984472,0.8774275863940088,0.9384443787282942,0.984318940670211,0.951416811574821,0.8790833246293083,0.8029153636180647,0.7256755062558654,0.6462364915178945,0.5692669492863199,0.49776405701425663,0.5145319667861284,0.5934609029054269,0.6722940806144927,0.7515074341512397,0.8280223222672886,0.8632063848180441,0.8601202009510319,0.8667207098249364,0.854659943920082,0.8350113035935657,0.8519582912196021,0.8737769340986844,0.8816737805743794,0.8778475906699535,0.8713941096974359,0.8705884776755125,0.852080750872047,0.8182515202941539,0.77987739258964,0.7434187774203246,0.7240128443447135,0.7591990176244608,0.8058705191042258,0.8443735695601328,0.8797097170377485,0.9345503428218843,0.9888116280247751,0.9707279669357051,0.908500699568508,MI
0.30532703246954407,0.3628274063076389,0.4136333971488364,0.42432072402338994,0.42481593726114353,0.4223271391600263,0.40208873259636224,0.41014758210829116,0.41855380466356573,0.4161601944631199,0.4312344240331556,0.4445179357478777,0.45381330199791936,0.45391998325490235,0.45329396940848365,0.4307872027866937,0.39345420398445974,0.3731028811046695,0.3757567152212973,0.4322104993755591,0.4798710022709334,0.5050605347613524,0.5021602999912398,0.5142554667081187,0.5082881827678669,0.5297604392580233,0.48473382749556126,0.3924031044339169,0.30533374107500677,0.30420681430376595,0.39347465372220114,0.4965999146497735,0.6023952229409946,0.7145767476691036,0.8077783693437017,0.7862839101145682,0.6838188869759074,0.5825712940547039,0.4789976317317306,0.38496652266318776,0.323553853206378,0.29435843262429584,0.25871944181784245,0.230353923647296,0.19876762698877481,0.17258779911321653,0.13147520881617814,0.07944162561633439,0.026518345204983973,0.0,0.01330787782308418,0.0646995898943401,0.13721439955841763,0.2165682938289959,0.29714754822163725,0.37236978443022517,0.4402576258576838,0.4863477272833978,0.49498326915106805,0.478228522753283,0.47579518607242166,0.4651879729056758,0.454116682515477,0.4536126489448358,0.44128129673010497,0.43200142925135143,0.43214867404549784,0.44400063152160785,0.44161028096254507,0.3890438981135307,0.34475746887437264,0.32724713346269807,0.365784465484027,0.4185160789364568,0.4546667180651087,0.4640623644507236,0.4668703966416432,0.45961529145240165,0.471041701111103,0.45806109606323187,0.3687348565984583,0.27171100891022926,0.2437763977913825,0.31397357875770426,0.4170991822508885,0.5288997710595318,0.6302448924462944,0.7195213643626475,0.6760577709354814,0.5704253721595172,0.47191064025388174,0.384967884975036,0.31115911618798187,0.26581194306442324,0.24702019736785852,0.22918657771819229,0.19581376970072473,0.16434149042558444,0.1198065752969133,0.06796327469679442,0.02620011007494405,0.015899871853963354,0.037004281105257775,0.08309468868390368,0.15311218306067342,0.22978560044216323,0.3059951390854052,0.3669360759171778,0.4189844709079993,0.44726590154133383,0.4534496618516708,0.43980693250586445,0.43194135028622416,0.4318813738472098,0.4318813738472098,0.4318902270609293,0.43535915529417535,0.45210173808889254,0.453910459922406,0.44793343651535666,0.3975357679888827,0.3624443938856112,0.3332200700890935,0.3654493074297527,0.42403027779088953,0.44847235280008224,0.47472301404923956,0.482416984214213,0.5319854980360064,0.5506681535515567,0.5440360075137987,0.5141439492122255,0.4927907572179864,0.44159026668548185,0.4422274224113458,0.4825846888156953,0.5244520976346716,0.520752678362959,0.5175722146972741,0.507089233955079,0.5066001311738453,0.495157362276907,0.48743746358281737,0.5042443859511145,0.5068416166025838,0.5132371145853547,0.5185864212219604,0.5160001673626624,0.501332404169859,0.46075615335843256,0.41058698071318434,0.3500488406908997,0.274979679600734,0.1945102307848403,0.13137165471945833,0.08842979726832212,0.08451731948295294,0.1298052228461648,0.17637299935410278,0.2230012176072811,0.25085942748212053,0.2827078872643489,0.30591888570406534,0.32941209044541697,0.37478291248168727,0.45824616039464505,0.5504845716003866,0.6489408801275642,0.7569976638602625,0.8572304766448133,0.915650536912048,0.8672861681246444,0.7708094330040791,0.6680953328996915,0.5618573935040354,0.4604602307166763,0.4725651396176196,0.5373538696133107,0.534102622501023,0.5288738229397341,0.5288510218413149,0.5278285163390581,0.5106541939953235,0.48160390846910506,0.4267067055210787,0.41540511196456453,0.45156306935405555,0.5054906727681621,0.5114337243751677,0.5067155067331499,0.49744243770485586,0.49133624802417186,0.5060491945378098,0.5084719998378531,0.525065349019807,0.5304949607002643,0.5470920166513262,0.550879674903856,0.5508350383567078,0.54295399285501,0.5066098700206076,0.4396451366450189,0.35631156644828765,0.2760953958453727,0.2063264738183217,0.1316425071331242,0.0746447606699312,0.09872866681188919,0.1416162213364629,0.19271643095800783,0.2333289893598387,0.26486162099473276,0.29242374406217797,0.319416296999707,0.36084934644951216,0.3880186228986351,0.43339942082728733,0.5226369200834409,0.615723916428704,0.7202988237264072,0.8288959932956517,0.9349145022881387,0.9999999999999996,0.965918219815221,0.8810998127954641,0.7801020626140969,0.6700958391564598,0.5622775898276475,0.4987594615178397,0.5695860443981742,0.6089392368869087,0.5916285856932832,0.5743380824395565,0.5693117071422011,0.5673139442584825,0.564659596508621,0.5280392281586241,0.4787604223890294,0.4527914281183931,0.4581359234116267,0.4975022899322479,0.512687657066929,0.5274467275496213,0.5142530997985024,0.506867421796545,0.5067855935481935,0.501237876642004,0.48571012189397544,0.4847750782976177,0.48627475922590113,0.5021778467633164,0.4922558795804428,0.4842812456106107,0.465127293125021,0.4181427231575383,MI
0.30532703246954407,0.3628274063076389,0.4136333971488364,0.42432072402338994,0.42481593726114353,0.4223271391600263,0.40208873259636224,0.41014758210829116,0.41855380466356573,0.4161601944631199,0.4312344240331556,0.4445179357478777,0.45381330199791936,0.45391998325490235,0.45329396940848365,0.4307872027866937,0.39345420398445974,0.3731028811046695,0.3757567152212973,0.4322104993755591,0.4798710022709334,0.5050605347613524,0.5021602999912398,0.5142554667081187,0.5082881827678669,0.5297604392580233,0.48473382749556126,0.3924031044339169,0.30533374107500677,0.30420681430376595,0.39347465372220114,0.4965999146497735,0.6023952229409946,0.7145767476691036,0.8077783693437017,0.7862839101145682,0.6838188869759074,0.5825712940547039,0.4789976317317306,0.38496652266318776,0.323553853206378,0.29435843262429584,0.25871944181784245,0.230353923647296,0.19876762698877481,0.17258779911321653,0.13147520881617814,0.07944162561633439,0.026518345204983973,0.0,0.01330787782308418,0.0646995898943401,0.13721439955841763,0.2165682938289959,0.29714754822163725,0.37236978443022517,0.4402576258576838,0.4863477272833978,0.49498326915106805,0.478228522753283,0.47579518607242166,0.4651879729056758,0.454116682515477,0.4536126489448358,0.44128129673010497,0.43200142925135143,0.43214867404549784,0.44400063152160785,0.44161028096254507,0.3890438981135307,0.34475746887437264,0.32724713346269807,0.365784465484027,0.4185160789364568,0.4546667180651087,0.4640623644507236,0.4668703966416432,0.45961529145240165,0.471041701111103,0.45806109606323187,0.3687348565984583,0.27171100891022926,0.2437763977913825,0.31397357875770426,0.4170991822508885,0.5288997710595318,0.6302448924462944,0.7195213643626475,0.6760577709354814,0.5704253721595172,0.47191064025388174,0.384967884975036,0.31115911618798187,0.26581194306442324,0.24702019736785852,0.22918657771819229,0.19581376970072473,0.16434149042558444,0.1198065752969133,0.06796327469679442,0.02620011007494405,0.015899871853963354,0.037004281105257775,0.08309468868390368,0.15311218306067342,0.22978560044216323,0.3059951390854052,0.3669360759171778,0.4189844709079993,0.44726590154133383,0.4534496618516708,0.43980693250586445,0.43194135028622416,0.4318813738472098,0.4318813738472098,0.4318902270609293,0.43535915529417535,0.45210173808889254,0.453910459922406,0.44793343651535666,0.3975357679888827,0.3624443938856112,0.3332200700890935,0.3654493074297527,0.42403027779088953,0.44847235280008224,0.47472301404923956,0.482416984214213,0.5319854980360064,0.5506681535515567,0.5440360075137987,0.5141439492122255,0.4927907572179864,0.44159026668548185,0.4422274224113458,0.4825846888156953,0.5244520976346716,0.520752678362959,0.5175722146972741,0.507089233955079,0.5066001311738453,0.495157362276907,0.48743746358281737,0.5042443859511145,0.5068416166025838,0.5132371145853547,0.5185864212219604,0.5160001673626624,0.501332404169859,0.46075615335843256,0.41058698071318434,0.3500488406908997,0.274979679600734,0.1945102307848403,0.13137165471945833,0.08842979726832212,0.08451731948295294,0.1298052228461648,0.17637299935410278,0.2230012176072811,0.25085942748212053,0.2827078872643489,0.30591888570406534,0.32941209044541697,0.37478291248168727,0.45824616039464505,0.5504845716003866,0.6489408801275642,0.7569976638602625,0.8572304766448133,0.915650536912048,0.8672861681246444,0.7708094330040791,0.6680953328996915,0.5618573935040354,0.4604602307166763,0.4725651396176196,0.5373538696133107,0.534102622501023,0.5288738229397341,0.5288510218413149,0.5278285163390581,0.5106541939953235,0.48160390846910506,0.4267067055210787,0.41540511196456453,0.45156306935405555,0.5054906727681621,0.5114337243751677,0.5067155067331499,0.49744243770485586,0.49133624802417186,0.5060491945378098,0.5084719998378531,0.525065349019807,0.5304949607002643,0.5470920166513262,0.550879674903856,0.5508350383567078,0.54295399285501,0.5066098700206076,0.4396451366450189,0.35631156644828765,0.2760953958453727,0.2063264738183217,0.1316425071331242,0.0746447606699312,0.09872866681188919,0.1416162213364629,0.19271643095800783,0.2333289893598387,0.26486162099473276,0.29242374406217797,0.319416296999707,0.36084934644951216,0.3880186228986351,0.43339942082728733,0.5226369200834409,0.615723916428704,0.7202988237264072,0.8288959932956517,0.9349145022881387,0.9999999999999996,0.965918219815221,0.8810998127954641,0.7801020626140969,0.6700958391564598,0.5622775898276475,0.4987594615178397,0.5695860443981742,0.6089392368869087,0.5916285856932832,0.5743380824395565,0.5693117071422011,0.5673139442584825,0.564659596508621,0.5280392281586241,0.4787604223890294,0.4527914281183931,0.4581359234116267,0.4975022899322479,0.512687657066929,0.5274467275496213,0.5142530997985024,0.506867421796545,0.5067855935481935,0.501237876642004,0.48571012189397544,0.4847750782976177,0.48627475922590113,0.5021778467633164,0.4922558795804428,0.4842812456106107,0.465127293125021,0.4181427231575383,MI
0.8170739967854741,0.8561284527580699,0.8797180512654494,0.8871149475266511,0.8736336893187178,0.8102734307150798,0.7266872316411963,0.6501754055978124,0.6000820305204086,0.6240560641548669,0.6535852069507302,0.5751528606326823,0.48107113763982534,0.3938742292247668,0.29764668423524787,0.200778787368723,0.11154070153235929,0.025514357947311384,0.0,0.0715437501693219,0.15809917447661115,0.254044081016372,0.3511773517541634,0.44828226543313754,0.54147968274409,0.6293262838931841,0.7242925954400448,0.8093801640039324,0.8843930578615058,0.9270173947571954,0.9349479200302884,0.9231251026952385,0.9078604522501885,0.884873476954658,0.8483188851799148,0.8062643265261771,0.795583826524634,0.8037444202417328,0.8226300170211733,0.8597758967593829,0.8585108106998576,0.8429823343447616,0.8430508199864739,0.8521124479900009,0.8689003809008684,0.8615949154416171,0.8664247086075958,0.8613015843824188,0.8293315504465422,0.7909615008620243,0.7561764056577023,0.7434634811293226,0.7646732821410567,0.7601734124711197,0.7511195867277236,0.7443462535596364,0.7159633417507345,0.721658159043008,0.7626290433598675,0.8222087418899238,0.869338092311873,0.9020825003098774,0.9471331352502277,0.9489505941162315,0.8788439332065157,0.7919666404538133,0.6959342053898598,0.6069846297748398,0.5151188178113584,0.42032615408678353,0.34341284592201515,0.2600723689315616,0.16809453354451542,0.07557155255402881,0.02360127543334034,0.06800964264676268,0.16081982181390475,0.2488736544510739,0.341774936565846,0.43887524959950075,0.5360100269903476,0.6330405204973413,0.7240033685629956,0.8106815178891045,0.8894431098404103,0.9264083839391131,0.9198054782726006,0.9108031553993021,0.8930842815564233,0.8711843815496942,0.8520090329088659,0.8221873955739432,0.8017355716587076,0.8054561740286827,0.8253520451755552,0.8653108023677929,0.9002110058500878,0.9080710508173759,0.9116896028440615,0.9219734463559857,0.9281469935579543,0.9115911569432431,0.9061772212980828,0.8982001104322686,0.9021684873398879,0.8946958064444168,0.8951006292903079,0.9036793258597224,0.8935926095625899,0.8577300505509491,0.831079840437505,0.8457327682165119,0.8783379446226693,0.9067550260690649,0.9163581883854375,0.9021392240402439,0.867614189353201,0.784632172277701,0.6924755266319786,0.5955603912543033,0.5054285567721672,0.41482678487642244,0.31783100786180674,0.2231624692322942,0.13627990356058706,0.04755055557641508,0.03365970526153084,0.10961584568201044,0.20478939226895787,0.29171033122579626,0.38632983670895094,0.48285488794941145,0.570567772941301,0.6632946392969246,0.7506345397356504,0.8350702592672079,0.9074356640826144,0.9456097353657584,0.9397396356530023,0.9254946276803497,0.8982767970659731,0.8752100872817452,0.8525704869199047,0.8922910941280857,0.9221177971423413,0.9474423741020781,0.9693210335693869,0.9815624704063575,0.98814647974318,0.9654528555437023,0.9088205919148125,0.830807396599232,0.7442035545253713,0.6555541713365003,0.6281453222212361,0.7125645479303733,0.8061456207691642,0.891180408324246,0.9560100237725411,0.9622602833595348,0.9576756001591848,0.9505724057529059,0.9268144947375732,0.8868425530537032,0.8855441864307447,0.9255642901848808,0.9477576523058409,0.9442169330724572,0.9311188929740906,0.9437589289647421,0.9427051012565408,0.9421487915034612,0.9491361781339014,0.9505849371598474,0.9658957610438879,0.9668800182157578,0.9542584355242341,0.9568680294796288,0.954082559220488,0.9353439454453885,0.9036556077992268,0.8681306885246884,0.8516963205491133,0.8631568792456548,0.8895298571706827,0.9124567014322771,0.9283938072404518,0.9505353526454228,0.9603405938063465,0.9661400043096238,0.9545466804787919,0.8928519711489888,0.807656189557896,0.7214510852450509,0.6271646157944855,0.5455268652115488,0.5509674426370574,0.6429068084961356,0.7317265813995635,0.823033588315617,0.9097148524740113,0.9831218298172952,1.0000000000000002,0.9865450469853594,0.9442727219947431,0.9102736791926482,0.8663062792158425,0.8038687421640176,0.771564261244871,0.7859620923627906,0.7979816160055437,0.8028705099221998,0.8345641262852437,0.8095568377536069,0.7959701681210294,0.8137196525026005,0.8459346434823873,0.8853011320548763,0.9114069352247929,0.9218435057002596,0.9093530461677195,0.9243822103308126,0.9198535952850502,0.8923772411656856,0.9015084122476698,0.8984161595740423,0.9063752935448257,0.9094952773846947,0.8839809957505851,0.8523073593804262,0.8370730266132786,0.8575939589642807,0.8981004068798539,0.92787998073309,0.9472158970099727,0.9617254540878324,0.9750433660022757,0.9725078033113148,0.9487833683608258,0.8949594674465005,0.8106800976351509,0.7218598720643563,0.6338856480334278,0.5417780128648453,0.48683339424493144,0.5496148024968013,0.6453258841595002,0.738757505774635,0.825643571684006,0.906973158635717,0.9340474379295303,0.9266492426665736,0.9161817847489753,0.9026015218292402,0.8600983033453999,MI
0.73559523729211,0.7383000193915628,0.7403854262817133,0.7535138960237955,0.7626214227263826,0.7732025563029121,0.7742184372757541,0.775414702710294,0.7624957282410163,0.7330744940846716,0.7491829053136754,0.782870867152746,0.7930879736056542,0.7925341275529485,0.7319727558963467,0.6398091938611632,0.5459526679712026,0.44663504982586866,0.35600667952947207,0.25918227198485044,0.15901428408424634,0.060077007940892546,0.0,0.04732313164814128,0.13625125348970335,0.23549088844729393,0.3261064585005464,0.40337196418248755,0.49507304287093445,0.5868594726015228,0.6778557158621825,0.7634391794938504,0.8096605708442892,0.8100776085964188,0.7734971390748906,0.7326413893959232,0.6775642913359263,0.6209332793684901,0.5678274371149321,0.5189084075189769,0.5131465577051149,0.559470988788513,0.619145020658161,0.6807294515819349,0.7384256479172664,0.7711740422499367,0.7636330764743451,0.7544470619753332,0.7659387520054715,0.7782443108945958,0.7793933610699679,0.7780177569005264,0.75750422579305,0.733040492520995,0.7441756133951771,0.7817314557377246,0.8113199453269426,0.8382964725539104,0.8651620157978508,0.8138607240016151,0.7238114640502831,0.6249348048046941,0.5342830229854205,0.4374946072995849,0.338620763598769,0.24857450657313307,0.15508036696464678,0.11248265827193271,0.1696442609842872,0.2629381902617116,0.3577760161266148,0.44990384784871384,0.5497829105088834,0.6499707019601031,0.7491443487676288,0.8379623145719552,0.9069730291563189,0.9342970872580425,0.9361542519926043,0.9065949661556738,0.8578375738317443,0.8233713969640846,0.7700454186235182,0.7206403595558633,0.7199507575975281,0.7636722572398424,0.8237305839583065,0.8848591298220922,0.9264501451240799,0.9207141331032531,0.9063244751160289,0.8834500579657911,0.8657441668838914,0.8564788574595785,0.8351038321579214,0.8160726180004847,0.7806060908745187,0.745037385239617,0.7323042538275222,0.7525820829231207,0.7483779748401824,0.7533644990299555,0.7245098996850747,0.6331443488524378,0.5330310451617102,0.4330129704629122,0.33972533783939207,0.24602755783636376,0.14811354515430986,0.05974970670620383,0.011285569220468306,0.07123534932931874,0.16269806525773634,0.26134119962258784,0.35139837588489176,0.44825188090093904,0.5381398770420138,0.6266310803604722,0.6875687198126892,0.6889190336020117,0.6642711467167155,0.624524173497008,0.5626108022538592,0.49807248462968845,0.4405294004379028,0.3852161918579955,0.3488419921268926,0.37123638920092183,0.42957096967078967,0.49870006427738467,0.5635923583085258,0.630146062098393,0.692735043667219,0.7385967271569824,0.7646951915102709,0.7714453881980967,0.7909885879159977,0.8114438146036842,0.8038776244700836,0.7808572427888851,0.7402476847016133,0.6823163381716602,0.6195058259444317,0.5524328841729829,0.47974932301202067,0.4191356994133253,0.40759946792064583,0.459364272198606,0.5199309059815107,0.577891268250343,0.6417051540213881,0.6939940326708274,0.7280405493576318,0.7505443110524777,0.7530502373750054,0.7480432219666491,0.6770176004369937,0.589660402777004,0.506975132217236,0.43970277052628126,0.45867163634151464,0.5531939474718683,0.6452549003509391,0.7362339432900846,0.8200150367414465,0.8442873910725428,0.8061157451878223,0.8101345695530275,0.7974696891148474,0.7789312221258178,0.8000192274538116,0.8379158579258208,0.8641613050702177,0.8863778201131409,0.9029749780451879,0.907936789865039,0.9301519564442344,0.9550322729682752,0.9662171992260027,0.9715427649094464,0.9344789040699162,0.8774729257269862,0.8192791016244625,0.7673453608152125,0.7704325918815469,0.8267659944601324,0.8736441803021968,0.9115796966564802,0.95326905895427,0.9818828377691502,0.9813013513076219,0.9627525098013092,0.9205311765983875,0.8374970617161654,0.7468591618894305,0.6566424714704997,0.5587952594970247,0.5208486346458296,0.6032048216637738,0.6930883759051354,0.7891825989534107,0.8782962979914419,0.964051954022874,1.0,0.9396187893531045,0.8867761869685564,0.8637017381661911,0.846620216143128,0.8032420994029881,0.7764718540824389,0.8009841798810249,0.8122293023254734,0.8187218780532683,0.8213624018039498,0.8105163840542104,0.7999300372888349,0.8023090765056615,0.8107461806351108,0.7891385469228451,0.7397268016818512,0.6808906011099762,0.6157950633624152,0.5602044885521815,0.5607450680342478,0.6169280658888621,0.6738991003264312,0.7255213936791578,0.7779190870531236,0.8192579006496938,0.8475994413173815,0.8507640848199678,0.8413801799969391,0.7826795972572751,0.6952982709368487,0.6046407037854626,0.5210515815636345,0.5404778152448642,0.6368786226926693,0.7276234642267885,0.8240933654113625,0.9041655954107823,0.8873150802001155,0.8343357114882153,0.8253435967473681,0.8070948302651697,0.7808156863638311,0.8008777801348272,0.8120266715765019,0.8122533214267391,0.8108436235271599,0.8006235835016811,0.7923428621469455,0.7808357566780537,0.7832077565325615,0.7761383632818237,MI
0.6334686113329218,0.5894444354788226,0.5347083935823318,0.4475707794265924,0.32482610110370036,0.22723727359885437,0.1640389029968503,0.14842913078151954,0.1249144792108079,0.18766659185088486,0.2924732973235056,0.40007911322401446,0.510656411980269,0.6255676169600082,0.7248035478529391,0.7833253509261526,0.7964157016250413,0.7908913081587943,0.8144520418485892,0.8137048024822229,0.8201467467175028,0.7983748908815493,0.7454233346257224,0.7303123982445356,0.7848111294416729,0.8426623915951619,0.8805725494119918,0.8871697038070954,0.8490423850867632,0.729047096032093,0.5872940751545586,0.4412535536687807,0.3050203782953038,0.16289392285927562,0.07624998238035108,0.1462530779647606,0.2810293561742876,0.4213870421599051,0.5577715650725961,0.7015637233752838,0.831994334942872,0.8560558377942926,0.7655129257896718,0.6949096112254489,0.6355097229745503,0.5884123847068516,0.5175874923508896,0.4445168636066885,0.3669451564563211,0.2761675669647494,0.19072178688720864,0.12786204587318828,0.1560558395787921,0.24728407255376794,0.35140436245716433,0.46891787397315987,0.5904559376746685,0.6917571829279456,0.7554697912883319,0.7604762094123374,0.7588458280424022,0.7650493976949653,0.7832754766044339,0.789788134471364,0.7416927353416396,0.6939583237856937,0.7139831177434193,0.7808067175746736,0.8338757901157319,0.8574178205897391,0.855503145147051,0.7562455021926313,0.6214093746461558,0.47294817021757307,0.336364935066809,0.19175002435647137,0.059270736440009575,0.0,0.0942567398273697,0.22841009941492363,0.3759049721935641,0.5127821758729989,0.6535370782170187,0.7760705705776139,0.7760504834262139,0.7043936295780848,0.6512459277438816,0.6008749573820453,0.5442649213895847,0.47447769121533456,0.39447596570992793,0.3046198852116082,0.21417399626398304,0.15389056807321744,0.1668938678058023,0.25473728946951724,0.3610972804326531,0.47211943582943494,0.5948197742361079,0.6978477857376122,0.7665666577426302,0.7736421794310369,0.7773048585513238,0.7856915721827291,0.7984146130467926,0.797186590432371,0.7602086150333167,0.698854511461712,0.6988647926240512,0.7533427616774806,0.8095662019244534,0.8392403125538306,0.852740420271334,0.7745252525953856,0.6487748293359559,0.5192502061879445,0.377987739642474,0.24220613960687087,0.09887630003390413,0.015387414038522618,0.09029548041594948,0.22890896893971346,0.36440781560718305,0.5125797846893301,0.6628445480969773,0.7795034531033624,0.7495584442025316,0.6869769835767601,0.643024132240793,0.5905893677091987,0.5334387024136169,0.4686114041148026,0.47904376370105295,0.5626934188105293,0.6222793545185996,0.6729126526577809,0.7173251694605773,0.7701321554045593,0.8629988944541744,0.9626237262724247,0.9666653069682791,0.8764517636540186,0.7479043398678278,0.6118887751223054,0.47765925268214904,0.4891742102425418,0.6166214131894168,0.7469049680544639,0.8711863552059822,0.9345203803032507,0.9098722055968791,0.8959808975667367,0.8611023412281802,0.8058552473401357,0.7636333560273569,0.8074139530625462,0.8525795871454824,0.8668757910763305,0.8637047584840958,0.8529012112017327,0.8474247033086257,0.8462645582639898,0.819923244162803,0.7495804184822816,0.6386445618772689,0.5272959375249955,0.4149893835596492,0.30726748611330024,0.22830737581448712,0.26552544923533095,0.3550838392766327,0.4436224508698059,0.5233163764780318,0.5926547336058747,0.6537815468909653,0.6989331942881738,0.7578207821571699,0.8312723948515868,0.9361051794545654,0.9859082344605334,0.8932175298379836,0.7576579007395883,0.621161788134601,0.5117042776714515,0.5789886389006416,0.71013920722402,0.8373934483327519,0.9283927747810301,0.9236674725756098,0.9067965266589013,0.8749282346784515,0.8156345145225794,0.7830532896578108,0.8210907592881558,0.8465896799657271,0.8460797486481857,0.8320931270197738,0.8351666381941634,0.8327395382574014,0.8251423580321879,0.7761072429504732,0.6823624770368526,0.5729192082503674,0.45921558125883344,0.3472702488651218,0.24802405566873365,0.21735686647876884,0.28599770485872433,0.3705431371795571,0.45990249728279853,0.5337216629196857,0.6055911439221484,0.6700519893940284,0.7201318903418401,0.7845585816410852,0.8697562306014781,0.9773344651136537,1.0,0.8970599628653635,0.7637098311965187,0.6206838967387833,0.5325047563145833,0.6221346455216517,0.7537031103583551,0.8795568395600064,0.9668882532909642,0.9595785426170331,0.95063615651268,0.9192130098055178,0.8593510986830095,0.8093436125417615,0.8294747210689053,0.8746226563187869,0.8825555918166512,0.8856361681684728,0.8744893219701542,0.8675267957590806,0.861009583525632,0.8274414287012233,0.7602835566838739,0.6665224109327905,0.5576167367017626,0.4447194262733425,0.3335414009341502,0.2253779084851537,0.2261613414543726,0.30911273601161815,0.4204694466089913,0.4386331202588134,0.4340091209398982,0.5090583093295042,0.5447868828022111,0.6109857334162268,0.6632573341092067,0.7054654420909579,MI
0.482010220471651,0.5267249109709284,0.5708257740244074,0.5593252862034037,0.5806031148571171,0.6439269974874022,0.710813447219963,0.7721279532216876,0.8255996200410545,0.8578144755335844,0.8577138509729583,0.8564508239488275,0.8564449341051397,0.8563944500464853,0.8519518154617589,0.8327336200694075,0.8345504072593488,0.8551020518047687,0.8686872783320925,0.8288199207614597,0.7552475536600409,0.6761820093570998,0.5970965425996098,0.5222210392096456,0.4423192500951687,0.36190533940983394,0.2859500987997958,0.20840836598815848,0.12820391272141396,0.053410776660182235,0.004736551069475681,0.05063932165204432,0.12593709867744474,0.2033006347766857,0.2838566037174345,0.3628941894273856,0.43779794765100477,0.5177287610564949,0.5983123781141824,0.6754747261626197,0.7357231022961137,0.7603414904306645,0.7341350351155362,0.6901132192198289,0.6342066253002039,0.5781712819241067,0.5231879717621712,0.4730165037127234,0.4669555529943883,0.5153655380164643,0.5756432234551685,0.6367063309944685,0.6974739339252498,0.7605176698525578,0.8138328216940103,0.8442045642547364,0.8479153374920549,0.8424790145067051,0.840424861470831,0.8405308751058786,0.840989045754946,0.8261490419766417,0.8294733777388867,0.8532102283826124,0.8816686742895219,0.8689462006008792,0.7970080717388055,0.7199973670179396,0.6400857551247796,0.5652211237758744,0.49210726387028125,0.4270598288763612,0.3624591665092901,0.29193338292612214,0.21182394764537316,0.13168509433036868,0.0569969861036933,0.005040964411552218,0.04636679155136059,0.12013445747474638,0.19987641822569202,0.28034102399121275,0.3566072956062101,0.43380628742586014,0.5141859707901859,0.5903255896010986,0.6648476702086246,0.7321805486291948,0.7602050636277191,0.7320934528915575,0.6854489908221955,0.6313794176616201,0.5740426645753349,0.5201544015594624,0.47637907106997535,0.4846334013378295,0.5351947245895812,0.5986453661265834,0.6596348370472085,0.7203996865316318,0.7802698906315029,0.8327847587950103,0.8551263829575233,0.8564430142405237,0.856500587604305,0.8589127821024947,0.8632994266261305,0.8656566662672969,0.8495715816774354,0.8485776500605133,0.8668153930018507,0.8884349305253498,0.896776656716294,0.8285798286202384,0.7535238596026441,0.6749454165332542,0.5977137888051502,0.5214911200482824,0.4410313850708194,0.3604811886214432,0.2833772462805684,0.20701962598706947,0.12658985500469822,0.04933493439319747,0.0,0.044185025660182786,0.12048910251857425,0.19668474530535163,0.2771260912552458,0.3560850448351701,0.4310239202067423,0.5109877704409158,0.5898641041872106,0.664190716094418,0.7341632243172949,0.7671085932825517,0.7428062832867666,0.6982838685756223,0.6450081297203489,0.5861380952779509,0.5266182300037614,0.47505094705478745,0.44973261010714394,0.48261123853361676,0.532652724628639,0.5895116295055394,0.651457545143276,0.7056300053435409,0.750759688963559,0.785448533116085,0.7956590693211516,0.7583273902450618,0.6899973773328223,0.6169788243249716,0.5748572370104181,0.6297535300053436,0.7065001671475439,0.7847558202779705,0.8600610859059701,0.9388362624088171,1.0,0.9859700317531301,0.9272504862371094,0.8915861370459433,0.8732554669090766,0.8879347249066896,0.8903240297451707,0.88301384277426,0.8770072437825547,0.8756953252653725,0.8756608355368352,0.8710396597834105,0.8359057845683449,0.7824108010896575,0.7231741643157625,0.6605309317666133,0.596030639544699,0.5375289783247728,0.5064485455660188,0.5452136547379414,0.5995361062228981,0.6536912027724466,0.7088907863595975,0.7539246492771203,0.7850279549958488,0.7824938060517941,0.7353990887165196,0.6656713466447697,0.591691297602706,0.5141471512800286,0.45269298730558094,0.4902917425633242,0.5698503500322551,0.6469491730872032,0.7233000135516834,0.8019983216942632,0.8769888741100147,0.9548298467691034,0.9875072184686473,0.9379336115564063,0.8874527308049931,0.8604581192879708,0.8516202346623392,0.8646255139692556,0.8606191187486434,0.8623569119012933,0.8673749756566309,0.8676682691697748,0.8663263446869867,0.8464299699933229,0.7979149623588024,0.7396933058363107,0.6787178415271671,0.6176059664054412,0.5542523979151746,0.49992813266817193,0.5013024057090825,0.5559360263269739,0.6124788825543044,0.6664777510809974,0.7196217416387245,0.7619932929059756,0.7878752047745852,0.7753522981119669,0.7169838792665097,0.6435920795956471,0.5690377317943063,0.49024407948981796,0.4205381232844867,0.422586632521341,0.49845782174170994,0.5788284964665495,0.6546181888513263,0.7318627978143679,0.801175698837288,0.8701247032157238,0.9460566903679342,0.9877150022893264,0.9446689097726269,0.8948140845947397,0.8672038562117543,0.8579427652637981,0.872228300747107,0.8756707900911249,0.8756897084898341,0.8757097401502192,0.8779222396962105,0.8827033076514843,0.8684307665370221,0.824531019286036,0.7646201107342498,0.7066492094289885,0.6859805785215622,0.6461397839890872,0.5920260403752258,MI
0.2074536629892454,0.1886476320244439,0.18322839889382303,0.20402714716877313,0.24098196705414665,0.28266870030517177,0.3306999204729322,0.3618239367015703,0.3398915677114016,0.311271953004693,0.28037693678140796,0.2658965985564672,0.25808708023815363,0.22843250099160306,0.1722134146960923,0.13176572680614518,0.14529457402143775,0.20355227026228828,0.22066709896518466,0.1602812151242592,0.10291099289834182,0.14868287631555033,0.24037159628336724,0.33625546656600447,0.4320577075459817,0.5179054725827594,0.4967465207060928,0.3976781063846233,0.2976976443218975,0.1971850640762196,0.1149696351746794,0.05472629970235188,0.028447189421884733,0.010315616909560177,0.0,0.010210360697982868,0.0508252761735184,0.0988896947947473,0.15403776468552177,0.20877715278401876,0.25599786535989066,0.2756634595384888,0.29081429460253494,0.3140584974747309,0.32877375020094046,0.3456642409250361,0.3548283101550429,0.3155410294522909,0.2818965626550165,0.3068425762767619,0.3696138131203477,0.422576028182299,0.41333690465208184,0.3423929828046792,0.32494757143612807,0.401944217309699,0.5075267302874864,0.6086815794098586,0.7016391530311257,0.7454614646228315,0.6687934628666823,0.5722887194319011,0.4758645113860016,0.3819364881534759,0.2986333698209793,0.2434859937777687,0.20870925415761787,0.16035466423881095,0.11787617094757818,0.09629048323518541,0.0954269313716325,0.12846087017552454,0.16870088130231276,0.21639731772522364,0.2519994684669178,0.2304562096386169,0.20107960547543113,0.17472718724445402,0.13659805629970423,0.13338956416054604,0.1182928112745012,0.07072715125409701,0.03360105324489959,0.03047674954333779,0.0957125714578253,0.15067796993629612,0.16418325653515708,0.10951487934017479,0.1190940176117885,0.2045144488999866,0.30188993583802315,0.39786149357473866,0.48414848166291113,0.4645045514579249,0.3689722706405787,0.27329973817872855,0.18415155945106987,0.11170371441392968,0.07010094203406103,0.05436940442032823,0.042426813282838705,0.05560655517907698,0.09591482960935416,0.1495682052225802,0.20711813713269445,0.27410464242307375,0.3394745046654397,0.4055639886058904,0.4450028720025361,0.448558198801555,0.45575693766010916,0.4873300883057019,0.5256505763757762,0.5648675288919613,0.5804800511634589,0.5458213582728781,0.5067447173508741,0.5365576078346006,0.5991372206357788,0.6247721260920973,0.5720595703391615,0.5043160671981064,0.538264007127891,0.6274943666067156,0.6804678186425566,0.6731276920210196,0.6329486751263378,0.5837514240908979,0.6028996371347208,0.6363560636266956,0.6242580986626791,0.5863131880343815,0.5473899354002807,0.5130161910674635,0.5021881264426957,0.5011525584060599,0.47767710170321154,0.42045097310279544,0.3524946491082348,0.28130759089630697,0.22163269555953358,0.1665494731741073,0.11448639095255331,0.0963613148740774,0.10131192284783141,0.11603271972685736,0.14525263868064764,0.2212313870889937,0.30313446608632777,0.3802007828056473,0.4759480653069814,0.5754072988368675,0.6751179468726307,0.7696832346261737,0.8500665430564389,0.8354655767170067,0.7452156238657368,0.6376025923834514,0.5374657848195188,0.43946963520318993,0.34526449873969955,0.25797952272391367,0.2415956551790206,0.21622149148405256,0.17764922524457116,0.12033229993191297,0.1036250045377094,0.14860984550679213,0.17066935027548524,0.1727338073519844,0.2026160801817425,0.2359071280438485,0.2633639042131284,0.29358092059037677,0.28795132686980773,0.24781688563887627,0.2025531415077082,0.16220268751974576,0.14375822849833408,0.16445117659095443,0.20237752362149086,0.2504992338898875,0.28388984218712876,0.34695252091933826,0.44364272474428956,0.5397187272032675,0.6356667495375339,0.7325612728684483,0.8287340500857052,0.9231515606195431,1.0,0.9814753983572637,0.8813109395874217,0.7748736013526898,0.6786580874431745,0.5838919685233823,0.4975586269815788,0.4832464485310375,0.48489200593039206,0.44719050723482656,0.38849753701846357,0.33417451414060295,0.3608363132334307,0.4072564565722918,0.41029663599581045,0.3974017219579986,0.37557899748126067,0.3504091003450216,0.3276245623197278,0.3223230522961882,0.3030368239478496,0.25520974252545026,0.2011430037160209,0.14849341613246647,0.10120357812259684,0.06766796667123165,0.04861829381593097,0.05677271981629328,0.0784788852005538,0.1255116107195735,0.2038595973731674,0.2943869020361274,0.3930593582844035,0.4904370845042276,0.5911836968912616,0.6921943532907506,0.7958364538336675,0.8625345950262413,0.8228585724401003,0.7250506328693902,0.623694243490371,0.5178976868382525,0.42315085821841647,0.3293267874091792,0.2453957808776983,0.26204584446152346,0.2802575752346175,0.2567824212191776,0.20178758025244603,0.20080630297430702,0.25654305695105517,0.293690411963619,0.3023449035144017,0.3225061014011601,0.33830397410481217,0.3679999329933876,0.3970143580749004,0.404381323986867,0.37761011065359007,0.33105579010098785,0.28974410580598065,0.25000333634820837,0.2255390074016379,0.24162227392658808,0.2663665303337446,MI
0.2556619388296184,0.31087851203720396,0.40309365621870574,0.46731602489013424,0.5265165332275146,0.5402153472354749,0.4619335350802012,0.3592997184931628,0.27052623757629,0.16468450832180848,0.07566845145581147,0.0853027245565432,0.1861690382833565,0.29662857349952,0.4103779711656652,0.5228764152467322,0.6359890017237184,0.713390295405834,0.6767097145293977,0.6046520747759536,0.567404845193769,0.6165002113774491,0.682925231985613,0.7534321246023556,0.8030467339229297,0.7863965598437521,0.7661682439859709,0.7983550723334978,0.8642715784239288,0.915956590037859,0.9067841848664071,0.8623529768281171,0.8147266961899202,0.7791571404729543,0.7487784964127822,0.7266072273327366,0.7212608120281918,0.7017667305094486,0.6706872366439809,0.6454216964911077,0.6937735974843728,0.7439395480357991,0.7379542811783586,0.7042176766908512,0.598060919161687,0.486101345141297,0.3762299375685467,0.26724044904908384,0.16394161197876223,0.12465251612267769,0.21000283033806744,0.3236732604050645,0.4319619509988222,0.5266371610070162,0.6396447982099285,0.7491779179266786,0.8137501508594891,0.7677897714271911,0.6911469810239073,0.6463026741800393,0.6161195359543199,0.580780894353194,0.536558014216229,0.5034554528910982,0.5185976498018054,0.5835683830866678,0.6651032006545479,0.7346368816655326,0.7849383771860494,0.8139994932328021,0.8261312279713628,0.817113345241792,0.7900221599160795,0.7626443340567284,0.7279874163497224,0.6773885979756589,0.6231198236331355,0.571824191358099,0.5729082717944056,0.6097971997146296,0.6148142667144527,0.581536078484417,0.4668322314094686,0.35361124280673595,0.2429043415531731,0.13268146540067738,0.02976144098555844,0.0,0.0781567938985015,0.16996152937250741,0.276955357038672,0.3979132268596639,0.5198763210243906,0.6104217495783457,0.5807544972120628,0.49405821601902744,0.40094723319000636,0.3313666229273471,0.3009675278263373,0.28593195694412943,0.25871970584655424,0.24580752103692216,0.285872635013535,0.35531828374259566,0.4342009313789683,0.5079024261789882,0.5626461107383776,0.6013891351195326,0.6471708366915752,0.710322049955388,0.7781708210794758,0.8454718195643678,0.9001453945786007,0.930899162754665,0.932499981602172,0.898519927422802,0.8556646757502802,0.8304178975121275,0.8621194428881709,0.8576922265544988,0.835751172279791,0.744310454277124,0.6251690660392941,0.5054905286260465,0.3960952108987632,0.29090447334574465,0.24181051554785737,0.3133998425694151,0.42770737980057305,0.5385881974220603,0.6559539540611543,0.7673602485959385,0.8879797722639959,0.9924066467441457,1.0,0.9018542327035894,0.7891944321205835,0.6785507100150143,0.5621248073548806,0.4563220797009757,0.44921866736948646,0.5530043980261921,0.6652823925294244,0.7755209139100052,0.8804110431766299,0.9304476722150756,0.9281583358186145,0.9282946791383977,0.8927587496056208,0.9179376815063813,0.960208901876463,0.9891807533361123,0.9878716310114131,0.9628581697973195,0.9173535870397327,0.8517267730351596,0.7832094495755357,0.7165510612228139,0.6638199796629864,0.626052689874351,0.5771195561027529,0.5079294430301231,0.4320883128260795,0.3600720603525902,0.3071478557174654,0.3249540006288467,0.34978413958926247,0.36647109735213945,0.40142624928505644,0.48007850702167776,0.5744361116196708,0.653630031160727,0.7159698659422284,0.7328114203808971,0.6435204211310159,0.5314409579438681,0.41882861210068745,0.3063492346003267,0.29700722717039074,0.4011177220977644,0.5129034892110069,0.6180219205694519,0.6767306259623909,0.6825079539201857,0.6744646949498256,0.6292234042131248,0.647586599013954,0.705009766562537,0.7600508648654092,0.8007042967079858,0.8318261578476203,0.8614842196565733,0.8806199459229558,0.8805109215799063,0.8618086990330434,0.8267273729696805,0.7736745361518791,0.6952911866337868,0.6182909420403169,0.5716100183243893,0.5936998184768272,0.6335268221745731,0.6710140823001476,0.7103986677421563,0.7508075427164274,0.82593022061539,0.886753462063135,0.9265011336379656,0.8977274632917411,0.7969810416650032,0.6766155466284856,0.5569935481254382,0.4460460132041626,0.341552583846648,0.37123124799431295,0.4794634483033686,0.5947912067152723,0.7052462159040478,0.7964324145726112,0.8107843997520443,0.7969153666321036,0.7456227999244454,0.7287574152200027,0.7557336285434437,0.7780055275624327,0.7821321186510493,0.7891274166554969,0.8207518034881542,0.850649854364057,0.8892706126620209,0.9390004638082932,0.982428210240434,0.9716629122297871,0.9148933403255941,0.8496278578246468,0.8352236119538814,0.8677132377655274,0.8648521019382134,0.8070140420978249,0.7358069066523463,0.666235910647337,0.6516841538277163,0.7205013590738174,0.7744942217582316,0.7876201405991039,0.7081014504092327,0.5970943893184235,0.4882695954924685,0.4397464792779777,0.5235101811667136,0.6167085877283367,0.6301171269467227,0.6105345633107233,0.5787638504377131,0.5133762099713115,MI
0.3823153223562249,0.4210091915989126,0.47009277382388304,0.4931359598924635,0.48069372217022643,0.4312879050880708,0.39375875067716903,0.3782208917086821,0.39866792169149157,0.435770031527292,0.47277439955754874,0.5173260260850255,0.5478049596650229,0.5827133565134855,0.5913008011084891,0.579530611208774,0.5548279953699747,0.5463363792192865,0.579061194719768,0.6058528178993877,0.6291477833322935,0.666368584277857,0.7166073208088094,0.7200007645234131,0.6635098655196959,0.6034020578158267,0.5540305981273072,0.5132389267344487,0.48987723251280724,0.47008528302075503,0.4569516479041692,0.4643977128193787,0.49126777527186116,0.5310059554205707,0.5728455438422425,0.5918560105473304,0.5869925675856248,0.5589397164444868,0.5327724827019739,0.5481885072103684,0.5665289682581948,0.5705901444506892,0.6091130972810005,0.6575410519578729,0.680709870654553,0.6327871120899095,0.57587183184371,0.5254633043208156,0.4876566386835851,0.4705113579216492,0.4661038749662044,0.46176287407727334,0.471923425968383,0.5053203154570501,0.5467731496304736,0.5776027093250372,0.5856334686154826,0.5892987418560974,0.583844161903441,0.6113555074451117,0.6383170718301135,0.640868526356467,0.6721877892054701,0.718873537887717,0.7285657636905044,0.6789428731995587,0.6240866316352162,0.5979641101125927,0.617174229856439,0.6209478662455049,0.6108547509729968,0.6046989809916,0.621035350135284,0.6552111325223396,0.6802809954241614,0.6653634924738062,0.6308149847157468,0.598032421692719,0.5667377454832584,0.5462509906830458,0.5709393957133234,0.6179714032236069,0.668285674496134,0.7156618995630509,0.7554508097365661,0.7890568415093965,0.8378144235781181,0.8881696600648378,0.9211170428883247,0.8890742595273505,0.8289622525997066,0.7776823348977507,0.749002537510204,0.7371053340171075,0.7060699688639024,0.6629102612630714,0.6156260932779863,0.5640124468963624,0.5175068726215687,0.4704495335970461,0.4156900121966661,0.36523071260857864,0.35437213362465025,0.38586001097262723,0.3861090742005956,0.3310053555796971,0.2700632242839188,0.2128710417094739,0.15811774705836057,0.10159966808987486,0.046644023521751676,0.0,0.01856945323573045,0.07358806282092856,0.11142405474193517,0.15624111515574846,0.2056840451727342,0.2618041407904582,0.3202973894026161,0.37424156459105007,0.42849846389737734,0.47687192939983725,0.5223772555094558,0.5629199505519603,0.6122534029441818,0.6448434047700472,0.6154075927492114,0.5756470830824131,0.6122337680475575,0.6744647316153477,0.7404757765382447,0.7696297972184846,0.7283806559098799,0.681256083455067,0.6318141853067679,0.5854811830344148,0.5442865653583217,0.4992038525080319,0.448024297358773,0.39514106808820026,0.3434574371448288,0.2863990937868953,0.22878856759941268,0.17769129519016225,0.1361176128528485,0.10470571158774356,0.11496689864934873,0.1750714374668123,0.23061169922752922,0.2888406769847319,0.3493649590535918,0.4074263110186537,0.4384704018444866,0.4232454897451302,0.41079938435314756,0.45811743277653594,0.5117977957574006,0.5562397917667653,0.6012535652433743,0.6526815141846601,0.7010353107133461,0.7437286920263068,0.7761777797427597,0.7909705050196182,0.8287020661142518,0.8926785819222803,0.9527809010345026,0.9999999999999999,0.9842461967832518,0.9317492927349774,0.8840948763414217,0.832628360184318,0.7970767090957941,0.7616907997285002,0.7155004203350649,0.6692257095824562,0.619804645052009,0.6082095782428732,0.6351322547433241,0.6691942056082859,0.7048976574019704,0.7256078533353781,0.7073470190218328,0.6736764239027909,0.646419722406841,0.6489735621449017,0.6627157404519638,0.6602620779866296,0.6513183818727984,0.6950015775874822,0.7539431648369642,0.8149989953898041,0.8656913796812181,0.8500430424576652,0.7935631072747894,0.742743084123142,0.6998721269465075,0.6840677492097093,0.6608806703457889,0.6268741817876063,0.6252100000659077,0.6297132507664952,0.6254052475619957,0.6042014565283683,0.5687452205360145,0.5285001658451906,0.5077263871231653,0.5080640908650852,0.516686342826478,0.5364948781679592,0.5818450238239706,0.6383938713042209,0.7013368406250179,0.7649867785082053,0.8093545390060307,0.7839293627106959,0.7247245348102459,0.6751474952023587,0.6313613072930343,0.6113225940613664,0.6038605709808808,0.5757726791323802,0.5763100129665221,0.6066970967088109,0.630464535606991,0.6369406907700786,0.6192437653110817,0.5818726108035716,0.5397050152123265,0.5068884115551003,0.5032945521793185,0.5180215374540985,0.5371612847361552,0.5670502194185819,0.6156226317220465,0.6755436408390695,0.7364556134148547,0.7972973180011519,0.8507306710907242,0.8470873075639039,0.7911574037780261,0.7436277182293703,0.6936728030378064,0.6575085832481219,0.6375618569284048,0.6045034299726956,0.5977988705651053,0.620089574661897,0.6336752219660876,0.6303617102592681,0.6033158515198235,0.5654090189662399,0.5426087282593549,0.5526889593176493,0.572824581677812,MI
