0,1,2,3,4,5,6,7,8,9,10,11,12,13,14,15,16,17,18,19,20,21,22,23,24,25,26,27,28,29,30,31,32,33,34,35,36,37,38,39,40,41,42,43,44,45,46,47,48,49,50,51,52,53,54,55,56,57,58,59,60,61,62,63,64,65,66,67,68,69,70,71,72,73,74,75,76,77,78,79,80,81,82,83,84,85,86,87,88,89,90,91,92,93,94,95,96,97,98,99,100,101,102,103,104,105,106,107,108,109,110,111,112,113,114,115,116,117,118,119,120,121,122,123,124,125,126,127,128,129,130,131,132,133,134,135,136,137,138,139,140,141,142,143,144,145,146,147,148,149,150,151,152,153,154,155,156,157,158,159,160,161,162,163,164,165,166,167,168,169,170,171,172,173,174,175,176,177,178,179,180,181,182,183,184,185,186,187,188,189,190,191,192,193,194,195,196,197,198,199,200,201,202,203,204,205,206,207,208,209,210,211,212,213,214,215,216,217,218,219,220,221,222,223,224,225,226,227,228,229,230,231,232,233,234,235,236,237,238,239,240,241,242,243,244,245,246,247,248,249,250,251,252,253,254,Target
0.10349002626781534,0.10387253206412383,0.11872573792884777,0.14172471396649167,0.1568625176699121,0.1430177492913054,0.14402190314100682,0.16402840560395582,0.1826527582186328,0.2001678545043224,0.22579944778357852,0.25039777309284394,0.2773215766762944,0.3116158052875182,0.33923143828386815,0.3669266618048077,0.38766155575823413,0.40793389876083586,0.39342336746835516,0.3719853342869799,0.34494535752506383,0.31218177661020796,0.2774748811903778,0.24535161494506275,0.2258177079720327,0.1924963215332034,0.16436774468315685,0.15022531987129817,0.12433478657703345,0.1012592238382557,0.06560110677319475,0.020473354627355,0.0494602986937438,0.10317510491528115,0.16943133266943722,0.23157096472340077,0.2893777221337337,0.3583460366989697,0.41596290566690186,0.47833010676581456,0.5466676339790362,0.6010818419281017,0.6674165078435883,0.7366780470821261,0.7953726942899615,0.8566095865152477,0.9252792541866919,0.978309310169819,1.0,0.9674457639428922,0.9092845993039558,0.8400243029822971,0.7706036583969191,0.7011830138115416,0.6317660642604523,0.5651137102655128,0.5108071497927225,0.44263801857194673,0.37321796093003945,0.3054269559145628,0.25141466084660635,0.18465412499623346,0.12919291583937254,0.08765477366266516,0.08427721160277324,0.07598595987163614,0.06470414556675985,0.05381848420970181,0.06437121568936366,0.07894335660605778,0.12295028778762118,0.15684867809304803,0.16931305564732968,0.17030447821881278,0.14224367433173146,0.12399610604645694,0.11929834657913174,0.09455319940354423,0.10061167145937322,0.09079513395733096,0.08820446552857897,0.09415092661216917,0.0860695531439557,0.1012204146520852,0.10392283628709764,0.11808666260309275,0.13822241321743434,0.16521137241943729,0.18357207493275718,0.20573952518081784,0.23329934955794807,0.25439392312290643,0.2868457180729709,0.3106809028300628,0.3380430957510665,0.34907378508190545,0.3315649034639616,0.2976150416630716,0.26880481299279246,0.23620076201452767,0.20413785905446202,0.18064417172476688,0.14817209472646686,0.12237990372295648,0.10700695834195617,0.09458133081897158,0.08082654356482033,0.03391816956019422,0.0,0.054325050099707006,0.10842968621602234,0.1698215526330631,0.22618105661013033,0.292388563811695,0.3466683093857008,0.414845254469141,0.4779563215180138,0.5349139501050892,0.603994111392014,0.6733663873326039,0.7336875475970515,0.7932331448997236,0.8608029188100867,0.9134520756077866,0.9432377118082291,0.9073781713938178,0.843811056114367,0.7882121682513787,0.7191948567309909,0.6497744240974224,0.5811241524153137,0.526321413744808,0.47170589418166653,0.42869572850490245,0.38289955433095324,0.33206536420390975,0.2777066068304346,0.20928589776679063,0.14718407696442704,0.08992949907418124,0.04817583327368524,0.046065708710022246,0.040982733709669095,0.027798187169735034,0.045858227451678335,0.06472824783114195,0.08200685352851877,0.12688593782164048,0.15799477156018904,0.16089841207587519,0.1585208573359953,0.12239598151559283,0.11753490927899879,0.10642492377777035,0.07898064848169195,0.06670010313392982,0.08162612790562918,0.08434834971733407,0.08247224008942666,0.07334482544954657,0.09372378299036033,0.11103877217589986,0.12814328496508187,0.1517096698055722,0.18435073476394237,0.2097118909504747,0.23285807266180392,0.2541846443635234,0.2760426909471452,0.3052976510554961,0.33208138837515877,0.33256435196868006,0.31857457149265267,0.2977925488503885,0.2561704747670399,0.22538434167039245,0.18750340451449254,0.16488538426950106,0.14656141863241645,0.11464273495896782,0.09424889521164204,0.07637992244589853,0.04407807040577838,0.01662425670262735,0.056941907119890445,0.11317223713893299,0.17660323794101984,0.24600658124189945,0.3124257258340295,0.36679462157671905,0.43510582628365757,0.49789497913002156,0.5551356506581828,0.6242351907580428,0.6876686611289835,0.7443410294329729,0.810302746123956,0.8642770639800088,0.9047205134321228,0.8928882483814249,0.8307507432812686,0.7714286641274861,0.7108928617867285,0.6415187841408674,0.572154612988363,0.5102297123836967,0.45219243068556825,0.3830148731136451,0.32055921191588244,0.2630264254939898,0.19384943824705214,0.12444052082013135,0.06273423964826863,0.06196567150682197,0.07423822412411907,0.0800633546799494,0.07139820169169475,0.09684925899838248,0.0898387860259362,0.09599826030718539,0.136442062852268,0.16570500471439287,0.1839015364389769,0.19817340418563667,0.1829736046707806,0.15071608662744707,0.15637258236351048,0.13321793911520263,0.09525262703125348,0.08440171266332364,0.0857251251447324,0.10090072210090639,0.10353134102755135,0.11209676977957894,0.12249931957452809,0.12262760936973027,0.1228157273250221,0.13403099033613364,0.1431087155570525,0.16136370691358737,0.18079745062966612,0.20620696076945766,0.23689939345495636,0.26286627714960176,0.30014507889485165,0.31392468169119203,0.32337331793259727,0.3232251476319905,0.29816765465602524,0.2746325200092459,0.24942507723656515,0.22781050079070742,0.1899808332371804,0.15834326313551106,0.1370379460125788,MI
0.425731220714181,0.3813251866530436,0.3395839951589261,0.28962165926206396,0.2617220384065453,0.22766584695215641,0.22344801725914376,0.22344801725914376,0.22344801725914376,0.2232431435150417,0.20235846102116373,0.1825862637450344,0.2062106282592424,0.22112586539690948,0.18868790078517605,0.1823817029373931,0.1824175279001281,0.20169114755091844,0.20227775109689716,0.18177033414881016,0.15299006213459343,0.14133191063042005,0.1413153886156424,0.1413153886156424,0.1413153886156424,0.14202121102132725,0.1719251299325073,0.21159693451765005,0.2602983972290547,0.30352626383104386,0.3598052722467058,0.41656841245880205,0.47353070782184137,0.5482788859226932,0.6061204185897058,0.6630295408947138,0.7423059395858616,0.7966760917216877,0.8133019913694595,0.8347766817815989,0.8008539406610202,0.7962708964299665,0.7624930493547426,0.719897757996188,0.6486918630507725,0.6238650318951651,0.5733335575418099,0.5477404454487367,0.5134443952201719,0.5008875733623217,0.47052097218098954,0.453671181014041,0.4290166288679478,0.42670989184544883,0.394223905922952,0.3710637759707076,0.31809445008814574,0.30353495465974945,0.26402040886063194,0.20792016523847057,0.14083785618903644,0.06711539499893249,0.06694435118664366,0.1498674689656907,0.2486408156889608,0.3557896832412002,0.4357167713596066,0.5460741118519818,0.6361739459588893,0.7310259773442018,0.8290001341719906,0.8772672893420221,0.8675845281941417,0.8039328794215708,0.7156569991880115,0.6237912624630821,0.5235167245016079,0.43854554809265966,0.3261943252484647,0.21330222195612336,0.10041842056724803,0.0,0.010149348848159434,0.05593282347337869,0.059180592480104544,0.05720859444632698,0.024992198449474756,0.018116445650391277,0.01814932609564135,0.03643278682119977,0.05894692360946063,0.06061609879212693,0.09442113615285574,0.11912616473769067,0.17084483246479376,0.21036533211795838,0.28186829516308887,0.3376748788004562,0.3399562459826244,0.2913211011447894,0.26480345851490483,0.2625824517291866,0.22274862374476623,0.15146531133033037,0.14135710261334822,0.16000683064198817,0.22522870790062832,0.2737333927469896,0.3045498539060594,0.3055806459026442,0.30444238097234955,0.2736050203017024,0.26541227331371786,0.2965969990403421,0.3055729574403232,0.30558052321441576,0.30293775990041283,0.26961281915269364,0.2581558083113258,0.2245878974478197,0.22344801725914376,0.22158132466703773,0.18954223321212726,0.1823818665216983,0.1896055170956048,0.22162614633220024,0.23691594104409575,0.2653366457162969,0.3001834084994952,0.34325786619193277,0.4278080332315941,0.4967273197333757,0.5536012920675715,0.6287533144781348,0.7046188168487122,0.7629892535778797,0.8043882248994789,0.8426627901083963,0.8717339408933444,0.8406757907555278,0.8275623971207704,0.7971797620503631,0.7635861099916621,0.725717101736084,0.7016185138107627,0.6169640416508715,0.5870352106702477,0.5532750788671326,0.5399479279900623,0.4885155885034633,0.46885927873817135,0.43838516229180247,0.4170464870593946,0.38656546487758536,0.3540606260330401,0.34776628261405396,0.37860497588714015,0.3520567552040612,0.34065896952550556,0.2891457399737005,0.2153379279360843,0.1656695408632407,0.21152104656665482,0.29635170385193366,0.40881008700163246,0.5168198798244434,0.5962544553263482,0.706420491517668,0.8192825770900924,0.9146667198973475,0.9726301693956092,1.0,0.9519287065435336,0.8553033523273772,0.7742169721477223,0.6688947813610637,0.558468405526428,0.4786004189220012,0.3712888345173315,0.2616107205071243,0.18322202754154837,0.11129169298468256,0.13854114680554286,0.14131481607057594,0.1413153886156424,0.1413153886156424,0.14040401098984567,0.11046258092943351,0.10106765314973742,0.13147178747296362,0.14397429767567882,0.17936532934682425,0.22393978804768722,0.29416359896193267,0.3364963249123303,0.39222038850306173,0.42748277267340473,0.4286329248467222,0.40993606311173014,0.3571698689180831,0.335234260626744,0.28395397801250866,0.24123908103380742,0.184255646151243,0.1823817029373931,0.18694759398953398,0.2197486569588163,0.18983243242314973,0.16571012232008364,0.18269413156148673,0.21041774005276004,0.20944925062193498,0.18282017538244588,0.19863912713612386,0.22317378724942483,0.2231490171545616,0.19731079360575432,0.18240624058310217,0.1823817029373931,0.1823817029373931,0.1823817029373931,0.1823817029373931,0.18157779824530618,0.15317103281627098,0.1748245797599317,0.1606217637306493,0.14373331989761695,0.17791649487346461,0.20338273789393124,0.25841092819788347,0.3146081947533581,0.3788678745722809,0.45382919965042134,0.5249678059518894,0.591409307624505,0.6661418091339044,0.7154881352937741,0.7627822974196539,0.7980858004847882,0.7983671343543568,0.7876276015889925,0.757895907112073,0.7393285169353048,0.6864791631467568,0.6642780664478618,0.6132809036088238,0.5751777698932443,0.522293905627321,0.5086787758574118,0.47586332786922103,0.4549327433939867,0.4622374883008078,0.42231721563033275,0.38844514041880807,0.38771327454614557,MI
0.425731220714181,0.3813251866530436,0.3395839951589261,0.28962165926206396,0.2617220384065453,0.22766584695215641,0.22344801725914376,0.22344801725914376,0.22344801725914376,0.2232431435150417,0.20235846102116373,0.1825862637450344,0.2062106282592424,0.22112586539690948,0.18868790078517605,0.1823817029373931,0.1824175279001281,0.20169114755091844,0.20227775109689716,0.18177033414881016,0.15299006213459343,0.14133191063042005,0.1413153886156424,0.1413153886156424,0.1413153886156424,0.14202121102132725,0.1719251299325073,0.21159693451765005,0.2602983972290547,0.30352626383104386,0.3598052722467058,0.41656841245880205,0.47353070782184137,0.5482788859226932,0.6061204185897058,0.6630295408947138,0.7423059395858616,0.7966760917216877,0.8133019913694595,0.8347766817815989,0.8008539406610202,0.7962708964299665,0.7624930493547426,0.719897757996188,0.6486918630507725,0.6238650318951651,0.5733335575418099,0.5477404454487367,0.5134443952201719,0.5008875733623217,0.47052097218098954,0.453671181014041,0.4290166288679478,0.42670989184544883,0.394223905922952,0.3710637759707076,0.31809445008814574,0.30353495465974945,0.26402040886063194,0.20792016523847057,0.14083785618903644,0.06711539499893249,0.06694435118664366,0.1498674689656907,0.2486408156889608,0.3557896832412002,0.4357167713596066,0.5460741118519818,0.6361739459588893,0.7310259773442018,0.8290001341719906,0.8772672893420221,0.8675845281941417,0.8039328794215708,0.7156569991880115,0.6237912624630821,0.5235167245016079,0.43854554809265966,0.3261943252484647,0.21330222195612336,0.10041842056724803,0.0,0.010149348848159434,0.05593282347337869,0.059180592480104544,0.05720859444632698,0.024992198449474756,0.018116445650391277,0.01814932609564135,0.03643278682119977,0.05894692360946063,0.06061609879212693,0.09442113615285574,0.11912616473769067,0.17084483246479376,0.21036533211795838,0.28186829516308887,0.3376748788004562,0.3399562459826244,0.2913211011447894,0.26480345851490483,0.2625824517291866,0.22274862374476623,0.15146531133033037,0.14135710261334822,0.16000683064198817,0.22522870790062832,0.2737333927469896,0.3045498539060594,0.3055806459026442,0.30444238097234955,0.2736050203017024,0.26541227331371786,0.2965969990403421,0.3055729574403232,0.30558052321441576,0.30293775990041283,0.26961281915269364,0.2581558083113258,0.2245878974478197,0.22344801725914376,0.22158132466703773,0.18954223321212726,0.1823818665216983,0.1896055170956048,0.22162614633220024,0.23691594104409575,0.2653366457162969,0.3001834084994952,0.34325786619193277,0.4278080332315941,0.4967273197333757,0.5536012920675715,0.6287533144781348,0.7046188168487122,0.7629892535778797,0.8043882248994789,0.8426627901083963,0.8717339408933444,0.8406757907555278,0.8275623971207704,0.7971797620503631,0.7635861099916621,0.725717101736084,0.7016185138107627,0.6169640416508715,0.5870352106702477,0.5532750788671326,0.5399479279900623,0.4885155885034633,0.46885927873817135,0.43838516229180247,0.4170464870593946,0.38656546487758536,0.3540606260330401,0.34776628261405396,0.37860497588714015,0.3520567552040612,0.34065896952550556,0.2891457399737005,0.2153379279360843,0.1656695408632407,0.21152104656665482,0.29635170385193366,0.40881008700163246,0.5168198798244434,0.5962544553263482,0.706420491517668,0.8192825770900924,0.9146667198973475,0.9726301693956092,1.0,0.9519287065435336,0.8553033523273772,0.7742169721477223,0.6688947813610637,0.558468405526428,0.4786004189220012,0.3712888345173315,0.2616107205071243,0.18322202754154837,0.11129169298468256,0.13854114680554286,0.14131481607057594,0.1413153886156424,0.1413153886156424,0.14040401098984567,0.11046258092943351,0.10106765314973742,0.13147178747296362,0.14397429767567882,0.17936532934682425,0.22393978804768722,0.29416359896193267,0.3364963249123303,0.39222038850306173,0.42748277267340473,0.4286329248467222,0.40993606311173014,0.3571698689180831,0.335234260626744,0.28395397801250866,0.24123908103380742,0.184255646151243,0.1823817029373931,0.18694759398953398,0.2197486569588163,0.18983243242314973,0.16571012232008364,0.18269413156148673,0.21041774005276004,0.20944925062193498,0.18282017538244588,0.19863912713612386,0.22317378724942483,0.2231490171545616,0.19731079360575432,0.18240624058310217,0.1823817029373931,0.1823817029373931,0.1823817029373931,0.1823817029373931,0.18157779824530618,0.15317103281627098,0.1748245797599317,0.1606217637306493,0.14373331989761695,0.17791649487346461,0.20338273789393124,0.25841092819788347,0.3146081947533581,0.3788678745722809,0.45382919965042134,0.5249678059518894,0.591409307624505,0.6661418091339044,0.7154881352937741,0.7627822974196539,0.7980858004847882,0.7983671343543568,0.7876276015889925,0.757895907112073,0.7393285169353048,0.6864791631467568,0.6642780664478618,0.6132809036088238,0.5751777698932443,0.522293905627321,0.5086787758574118,0.47586332786922103,0.4549327433939867,0.4622374883008078,0.42231721563033275,0.38844514041880807,0.38771327454614557,MI
0.13533081555839166,0.15428326158770167,0.15957749142666655,0.16566077245604172,0.16688436014478647,0.16655884568053603,0.15344302666546072,0.14037800711636628,0.12617437502792006,0.1020823542307534,0.09131414430370599,0.08018788246445174,0.08552761933013153,0.07427240107352251,0.07406338634603316,0.06496637401894789,0.058547063597682136,0.07150755534867548,0.05765664531491721,0.05352797782459895,0.038129215221856416,0.03706337493047629,0.03753756945189979,0.05398516133026243,0.08305829815253629,0.1222257857887965,0.1647401352130986,0.22061633551203208,0.2725145119506287,0.319137914581165,0.37729006762233297,0.43569152855255133,0.49409298948276925,0.5524944504129881,0.610895911343206,0.6692973722734243,0.7276437530302879,0.7773976125717796,0.8260838970027695,0.8843572975170795,0.9426046709086813,0.9867542562488314,1.0,0.9697523312055201,0.923098007547777,0.8719904800063909,0.821499841338198,0.7901244838204318,0.7445319096808314,0.7111112351636932,0.6678854070059002,0.6374161185258869,0.5927089111601127,0.5346030937643782,0.47620163283415984,0.4178005367219022,0.36057240498870335,0.3167761492964827,0.26114018487206225,0.20308292904014635,0.15800764384402122,0.10527667755072567,0.07504835037160085,0.07421295387320503,0.08300769824624421,0.0907705827028682,0.07572859425472611,0.0857853834005815,0.09461629442643682,0.11739938454355592,0.1522284429475449,0.1856898304505341,0.2186266598856932,0.2335557348306021,0.23827493327646776,0.2232676426839908,0.21160287837138148,0.18333429335801643,0.16159499854769965,0.14957713519110039,0.16235619445842575,0.14633719818203872,0.12967969135958057,0.11449294744807226,0.11124924832154015,0.111247048839346,0.111247048839346,0.111247048839346,0.11114546775665257,0.10188080567361535,0.09276463961612524,0.09270113036212857,0.09270113036212857,0.09270113036212857,0.09270113036212857,0.09269206869672875,0.08856074032367589,0.07474542668404549,0.07415521188491114,0.07415521188491114,0.07377350732978583,0.06006735545839925,0.055613205948135125,0.055609293407693716,0.05630170872582285,0.07051948987484069,0.07514070465273148,0.09168346577039976,0.11531970721835405,0.12995178049009848,0.14344149371275483,0.14839976920904663,0.15817025838664955,0.1647229876652192,0.14939342449018733,0.14502473104773195,0.12650886755642565,0.11164105727418816,0.09982131281849105,0.09082843970865184,0.07326366777013327,0.056551718988330446,0.046770253859726996,0.03695796875265689,0.026316360384886384,0.018555619325165917,0.01653816400680963,0.00121092941219203,0.012047829360733342,0.0184943137795055,0.021346746571425435,0.03939056405439745,0.06936899827685661,0.11959208929356135,0.16418861812064423,0.21008729673720028,0.26225595586297246,0.3206314612933294,0.3754754026271585,0.41967665032840795,0.4772926538106419,0.5356940301453905,0.5940942221435743,0.6499095125507699,0.6936140719390593,0.7507543836536086,0.8091554163192636,0.8675568772494819,0.9243436224743804,0.967115119354419,0.9985287100414157,0.9788032951338956,0.9286128671174216,0.8702490327053298,0.8142204446648775,0.7710429336571449,0.7135893893425438,0.6551879284123263,0.5967864674821071,0.5383850065518896,0.48001548609037226,0.42921608739881467,0.3816324221126499,0.32332508130823356,0.264924313003418,0.208149918033242,0.16482852103187895,0.11045059380939248,0.07087387596124017,0.05569255385781746,0.051333031207753343,0.03762607420526587,0.037067181726580856,0.041446612077356004,0.05534309264112691,0.06968214637147829,0.10651049907622845,0.14249864829308967,0.1633520709207743,0.18192115755413907,0.18539468858283126,0.1774413777241617,0.14938792592879402,0.12643558375185693,0.09679824502580248,0.07308605714361693,0.05752330872831779,0.05560961064070247,0.05707435930536153,0.07234436274685985,0.07415438707908839,0.07415521188491114,0.07413098484132208,0.06776322602752227,0.05574353666054366,0.055609293407693716,0.055609293407693716,0.056160200314907094,0.06980002158753962,0.06836484456337555,0.06637948155156304,0.06673848774637614,0.055707849891728056,0.056054069006720386,0.06929664042145323,0.07414131298681292,0.07415521188491114,0.07415521188491114,0.07415521188491114,0.07415521188491114,0.07415521188491114,0.0741580035353877,0.07782012995506182,0.09196685367340329,0.09378657701451765,0.10922010219398226,0.11786502686778766,0.13008048698523256,0.14388729763258468,0.14255700711179475,0.130052995823561,0.12938824304809682,0.11490216822126298,0.09551323767318287,0.07716280602126924,0.0630831549991937,0.05384643353186558,0.0385583707896755,0.03657810139329598,0.022691183869426368,0.018520967165222224,0.018305777090355857,0.007167923487366057,0.0,0.0010361040481692285,0.013728236021031126,0.007704667563422696,0.03467756876299388,0.07227958201895923,0.12048296955309246,0.17777993729481167,0.22091100974376854,0.2769978128489221,0.3353981105914414,0.3937449349841269,0.4435234558239758,0.49218602896990316,0.550458035835097,0.6088593275743768,0.6654516972402647,0.7087589059781862,0.7655186642785887,0.823919422008971,0.8814198791073546,0.9186241011515355,MI
0.13228363413010458,0.13910892661716456,0.1560064570559665,0.17553569593689256,0.20689006514084118,0.23652093883216452,0.26543866312190634,0.30067743044071715,0.3461192196013525,0.3906064388260768,0.4241189814296811,0.43751711361600076,0.45272322160760803,0.4401355866566128,0.41203359695542163,0.38614353798559753,0.3456943620294868,0.3101614008520239,0.26848743396631125,0.22990791145552691,0.18790700160324958,0.1507133543258945,0.1314745472275356,0.11679977174904987,0.10080382311328462,0.08900545245308278,0.09423390082793803,0.1064847797671149,0.129608631440973,0.1663591879828985,0.23386532304474095,0.28979587377383,0.3553694626492776,0.42569268523654236,0.4881714220635258,0.5468858985939162,0.6170595473428393,0.6874247162930152,0.7565187090061158,0.8112085148777748,0.8787633343622283,0.948326928378465,0.9964784636724064,1.0000000000000004,0.9581743730169214,0.8940049872441684,0.8238414934866949,0.7650461788793486,0.7026583515074227,0.6323260145427758,0.5623070505201815,0.50476472610565,0.44096780218033693,0.37062684322889394,0.3023992000401461,0.24794667818042315,0.17998639239991787,0.13902739219559734,0.12203665093147498,0.09926977117069447,0.09062308773017369,0.09362482620366919,0.1168071022718955,0.14652591147925476,0.18164518393732143,0.21201408525841803,0.22962070121619726,0.22822157485182926,0.19605162176170188,0.17429085114869647,0.1504013193102156,0.11121556651645648,0.09811556912289632,0.10072687098846123,0.1137740570572614,0.10721313354354844,0.11785910283979462,0.13169144277607225,0.13945615547317436,0.15326437539368465,0.13917080612743904,0.14219550219692767,0.15661542921416238,0.15724429962649156,0.15726149911252252,0.16296558981212694,0.18542162943217955,0.20518205775086962,0.24845065476380812,0.2904393843992219,0.32571890377557366,0.36088644308161744,0.39239896865619484,0.42581955434921426,0.4337587378585184,0.4226231187548879,0.4102324610505872,0.3807541354235511,0.3412684445698111,0.28921046452433297,0.245489688496622,0.202316368533773,0.16541256983993247,0.1392017455204999,0.1254009409690311,0.10320797940729953,0.09127561171657383,0.07392060861182115,0.06070460609997408,0.07616012337810707,0.08977354543553151,0.11207007107902767,0.16265206079099492,0.22542722834818107,0.28864815169247793,0.346655295049505,0.41673559956702233,0.4867696860779489,0.5435359589458097,0.608082357149228,0.6784353951720252,0.7487930848341882,0.8144856553485944,0.870279507113918,0.9274007209496804,0.9347391157083176,0.8851925384586088,0.8172811512464819,0.7628805462937827,0.6943209103357364,0.6239901977832742,0.5603757929275428,0.5027200056689041,0.4326225447117764,0.36407080484650667,0.30969815975162795,0.24128637961897637,0.17112448806703062,0.1124997171486477,0.055885936269062686,0.03812090636359278,0.018530870165784474,0.0,0.014291850411694451,0.041713141751388516,0.06762375552990463,0.09369213478632954,0.13143333105848098,0.14497687417635108,0.15410773329572836,0.12660399917508425,0.08916021548154651,0.05404209476685162,0.03901752416438242,0.038678967760465977,0.04138388368420909,0.057069187835394164,0.05845289062869208,0.06387071716525217,0.07769345769672453,0.07819976618605295,0.07943498910500502,0.09517289150183261,0.10786571130557698,0.11762218553769577,0.1177552792784784,0.12577814631703665,0.13765382426400352,0.15549081535981424,0.18292906877943116,0.2208273777991927,0.2563903048292886,0.3024700229844117,0.3409752882119985,0.3761658190539361,0.4113490037638803,0.44498940093996,0.4719918098435154,0.48857774611732685,0.461834485084879,0.43441375656158865,0.4014879706823957,0.3674609819612491,0.32902801810161364,0.2871092056300779,0.24960896225492313,0.218901931950088,0.18411364265088537,0.14593642179523636,0.12615789325424487,0.08776578178697347,0.07649616003071014,0.06053412069715325,0.059590811989041814,0.07574686509973061,0.10729529605763721,0.15983137975112394,0.22258169536174277,0.278691783267929,0.3484606847653531,0.4151816137883473,0.47024566236623455,0.5397975395027612,0.6101622262911519,0.6791181268091253,0.7337331953646502,0.8011963099733799,0.8539187093087222,0.864584387762847,0.8153693834919049,0.7452359031306508,0.6754116013907576,0.6190380735627103,0.5538885504005622,0.4835400718258023,0.41598525234134964,0.36129544646968936,0.29220145375658957,0.22191058142169684,0.16004206009914412,0.10072211524274222,0.03703461287054344,0.0345354077707829,0.03881950599620421,0.05152816964473006,0.07065948169918368,0.06519215767544839,0.09676363478531069,0.1299891713447896,0.1575315674640656,0.18935674047540285,0.19397362775321447,0.17289475391761489,0.14112552837215198,0.1170757086812233,0.11226930306937088,0.1324360849624715,0.13747306925875646,0.13748324141996093,0.13748324141996093,0.13748324141996093,0.13852674313663282,0.16024387874661183,0.19089564156314243,0.18814713853271448,0.18696985912773867,0.1953048715600234,0.17972769034410963,0.17716320178122702,0.18858249145840933,0.21563894314334497,0.25464738172643875,0.29323207200036805,0.33464440135570417,0.37909507337030135,MI
0.1624855520738402,0.16429935059117762,0.20331299961771476,0.2701880665419183,0.3532816780172321,0.41201348478305233,0.4331593667433107,0.43316228713755534,0.4166318499882986,0.3593464515796678,0.2947838171683492,0.21630230370790304,0.165308085165766,0.09230015996907026,0.04027130435706905,0.0055574796327007014,0.0004514311888952349,0.03006764457480493,0.11283307885280269,0.1784681074233534,0.23819497218402175,0.30367752584753793,0.3496100012286987,0.3843429161496945,0.4475290115579251,0.5183335102904043,0.5909011841727465,0.6498395533949979,0.6261025319060631,0.5619354675699921,0.4898487258653357,0.42341653814007296,0.3751785648009638,0.3394737830470427,0.2642404805730032,0.1771941335473013,0.09016794671267281,0.018928610243423183,0.0016624605777524337,0.0,0.0027219208741340317,0.025632509041809026,0.052560404214848866,0.10229523094607229,0.17115378804285797,0.22317388120805637,0.27763336386364523,0.349923627769241,0.3999701195068748,0.4518262205910841,0.4854752625553487,0.4963069507661513,0.49670864469419085,0.4678358553639703,0.41783348802021747,0.3597030187158725,0.30175797483422295,0.26480697391573704,0.3203535566833202,0.40706370482983223,0.4793151342126216,0.5230612136716846,0.5638951874768074,0.5713159763487758,0.5935609443050214,0.6075723160544952,0.6289114840015642,0.6647763619727685,0.6859805824846696,0.7073312646687815,0.7346698912646761,0.7592963290120456,0.8004030188552398,0.8374263947887237,0.8636839715854054,0.9070018027091504,0.950197477664585,0.9767727836853903,0.9822944083581802,0.9395983698490684,0.88580963483945,0.8491287591553625,0.7928564717298481,0.7349732423350219,0.6946865135478872,0.6534503890508252,0.6099056766807212,0.5665714397948771,0.5422215216761441,0.5416241902543786,0.5416241902543786,0.5421162295413011,0.5591772531006121,0.544616560817548,0.5416270695631913,0.543954067372217,0.5595459116767594,0.5429823087520576,0.5627050019602122,0.5686940264972855,0.563142148343116,0.5431584134874305,0.5620673077856311,0.5838401738634595,0.6257623512717871,0.6582595985851216,0.68780447433338,0.7246398930027413,0.7193137827047145,0.6823251729122526,0.6480083468643154,0.606380181233614,0.5742096461689408,0.5436652765278471,0.5279698790880558,0.5229895419464259,0.5170524896674125,0.49562770128423717,0.4874930516177831,0.49081423491416,0.5358326483665512,0.5859046590090311,0.6519017550473722,0.6849731568266475,0.6313753561050706,0.5624606996049946,0.5036973102326558,0.4381791935090926,0.4077372691223835,0.42028773532006225,0.4912730152733453,0.530007590844733,0.5720702451775037,0.5952971763399062,0.6064910783395097,0.6239835487582952,0.6450718876461612,0.658556388411299,0.695170792088192,0.7050055963002131,0.7311646791915609,0.7576983498491558,0.784307563237975,0.8155208486985681,0.8512511689862206,0.8948014036952565,0.9383053556271741,0.9749919428584799,0.9999999999999996,0.9805701480384053,0.9375444591897257,0.8927172493248379,0.8208392541577871,0.7537042418630837,0.7176658138680803,0.6622402595211176,0.6230001152869185,0.5922674940681625,0.5664143252158005,0.543960955130554,0.5416252911665711,0.5416241902543786,0.5395638541242627,0.5226312635232371,0.5405912922212068,0.5416241902543786,0.5416268155065311,0.546007571779453,0.5674544028187056,0.5687055437325381,0.5685373156156088,0.5523920019862678,0.5554078481899798,0.5974348073169087,0.6389280513490836,0.6713422584250464,0.702391546824733,0.6934923889496729,0.6527689848800518,0.6228380501649382,0.5820238510227731,0.5272226052101776,0.5145866664731513,0.514542836776219,0.514542836776219,0.5126951856414768,0.48972721392951124,0.46787584978725727,0.46905800597453196,0.5159368706248721,0.578049422195122,0.649875923567778,0.6817570964856485,0.6300750187935464,0.5554554978108741,0.4905389820764481,0.43080434261749145,0.4089194406105725,0.4403426484155193,0.49166734204482543,0.5406922086493879,0.5744291149587375,0.6038243199815772,0.6412174762106786,0.649948827847346,0.6557342672888873,0.6782599190035019,0.7010046106084684,0.7179068627117293,0.7577726626831764,0.7805282355042498,0.8020517516897931,0.8400176239504487,0.8709992982815913,0.918861276295535,0.9491520196996412,0.9883799857477036,0.9950914772360355,0.9644291921438319,0.9094370436878907,0.8552613671745637,0.8101617044765308,0.754971577033166,0.7107893680831876,0.6631256182224186,0.603658146272775,0.5806710168136422,0.5687655918994134,0.5680427154780143,0.5486624782676732,0.5358625525284633,0.5153828940405618,0.5156046285015745,0.5362793680564084,0.5416193349493201,0.5416241902543786,0.5416241902543786,0.5416241902543786,0.5416241902543786,0.5416241902543786,0.5416806277565347,0.5539377971094619,0.591708193008277,0.6337702235017999,0.6590979848212819,0.6959974037385241,0.6947404926953245,0.6542444782412242,0.6117370542716034,0.5810125466286942,0.5520740640142958,0.5320764415252843,0.5149208017490419,0.5143944454797551,0.4996410712097208,MI
0.0457176739413514,0.04589798244787624,0.033808942139534004,0.03310665090902898,0.04909330514168553,0.08087193100756807,0.12001489196543291,0.16144065487601056,0.21284194806026946,0.26512884912519263,0.3158160366986853,0.3582900904135924,0.4096048383765232,0.46181567566378634,0.5071307476244264,0.5369972315351172,0.5815476290945134,0.6249439835755468,0.6620391149967726,0.7120924098081072,0.7545539325042467,0.8058518321731296,0.8580656846390617,0.9041992312759448,0.9370713631131156,0.9245087276198181,0.8844396209941032,0.8335982617639313,0.7813106894610913,0.7290766702343534,0.6825948072340466,0.6367456577225101,0.5845478710217828,0.532259208971722,0.4799716965798986,0.4291606714911085,0.386582140311178,0.33549576450741325,0.2832082930641566,0.23219823817608143,0.1896681217404521,0.1387326585603268,0.08645158655226437,0.037012843259250916,0.008010801252307909,0.020311018601119724,0.029958714039854284,0.05705654611580746,0.08187728272420891,0.1024372272290126,0.1107570518277714,0.09670780885901831,0.07862551079875324,0.053837902210562616,0.04582497926179174,0.03903061179045064,0.04853853298880528,0.04971959073554455,0.054732725078632694,0.0553702517000525,0.05892318529922247,0.06206646090610635,0.06207431151320497,0.06207536416264858,0.06346193218964813,0.06831437331715251,0.062201381525479826,0.06236315402193493,0.07101545022115086,0.08408868452838325,0.10263540258783044,0.13314811525699,0.15948382486704737,0.18561423079913864,0.2090747611580892,0.22661794107982347,0.23532721855971195,0.23090081383418148,0.21105187701147843,0.18808904272824956,0.16410558860830404,0.14149227333950876,0.11052458045290203,0.0866914391599134,0.06635575578986663,0.05176836263651263,0.03853056641928809,0.03777948219845384,0.05279892555941723,0.08652574045398698,0.1258590081636468,0.16775211229167297,0.2183834019200539,0.2706701124889368,0.32270245807708786,0.3668826834555077,0.41516687112554074,0.46741202012491545,0.5151783583843206,0.5598170845986026,0.6119070873174928,0.6641957493675541,0.7163401291169764,0.7610501957252453,0.8087041250550944,0.860958567806863,0.9131205481536502,0.9579396171104757,0.9929839917929248,0.9880074694473504,0.9522653334394935,0.9024078090747412,0.8501238858562448,0.7995244090166427,0.7568943395605205,0.7056473148348168,0.6533589727530895,0.6010703107030286,0.5488145563487343,0.5010894688191878,0.45643922299493456,0.4043074922637193,0.3520188302136593,0.2997352983000052,0.2498153400790062,0.20697213190730235,0.15525601177435044,0.10296764534720593,0.05147079966390122,0.010644368722502406,0.0006208386870989457,0.012919556263851106,0.03060911631788077,0.05540505335120871,0.07625949708267954,0.09440758797194038,0.09470667780500719,0.07647580525047637,0.058133208142475246,0.03872002495363902,0.029276546108382373,0.03561039181636194,0.037288557327489924,0.0372906844518921,0.03818140915261026,0.04779158700224784,0.04967949935588267,0.04968195426824362,0.04850633704110874,0.03878429894842572,0.04307837191531738,0.04957626651802949,0.04968248175227097,0.050544470554757526,0.061352382139290285,0.07942561941410808,0.10059481122591585,0.12792800060632414,0.15860677471224882,0.18461205404497383,0.20475875327744708,0.22038244145168617,0.22275013706926883,0.21230615253045526,0.19441248179084747,0.17021204045621374,0.14211018137812026,0.11184901951386639,0.08837650326555391,0.07007889590176619,0.0508193748367467,0.0331776576223779,0.025006336328130763,0.02957726065895705,0.056862106264147005,0.09752866633905466,0.14464301163964866,0.18843929468391396,0.23084923909486887,0.2816327832933885,0.32937486123296456,0.3740351010791936,0.426126831725131,0.4783968962139258,0.5264979238366596,0.5708247023877067,0.622889650164439,0.6751783122145003,0.726914309376065,0.7698084716040889,0.8196579137420255,0.8719398183199223,0.9226659510866111,0.9649648983948742,1.0,0.9883565236830969,0.9436523996570916,0.8914284062864861,0.8402831771089181,0.7977858577581376,0.746952625710156,0.6946650719562046,0.6423764099061438,0.5900877478560824,0.5379450433623081,0.4926501513736339,0.445573212257671,0.3933249294167731,0.3410362673667122,0.2887476053166518,0.23645894326659134,0.18417028121653,0.13189747602941182,0.08324733190378808,0.039431661570610066,0.0,0.009732511446756353,0.01842346737340872,0.042449149025403754,0.07302264750337595,0.09397261792063771,0.11136645877616314,0.12154647854270362,0.10155302261315313,0.08153286680486227,0.06373682930936053,0.05194348233410162,0.04409456120602173,0.04955715122422921,0.04968248175227097,0.04968248175227097,0.04968248175227097,0.04968248175227097,0.04968248175227097,0.04968248175227097,0.04973066491037037,0.055132137146970184,0.0619445948062487,0.06389027067972441,0.08166747601877367,0.10323554030877835,0.12920887712880313,0.1552598890550998,0.17854866663458058,0.20576891513243423,0.22117655948318182,0.22296925171085658,0.21447142334300384,0.19614905088505052,0.16781640818054688,0.14263943277996916,0.12114416184730459,0.09521701497725088,0.07034667203468814,0.056058543913939385,MI
0.6923180149369665,0.7301199730114005,0.7529931706259143,0.774295099879649,0.7873585231988427,0.8096194369380942,0.8171095827528214,0.83733315342789,0.8471169993142098,0.865607143488182,0.8859021185652969,0.8774300109804978,0.8391039837086343,0.8097244071455787,0.775423778709091,0.7234583214093044,0.6796116096730005,0.6319947869239186,0.5745432409377953,0.531237120159707,0.46328372948315266,0.40409207374582934,0.3462156146059092,0.28892081710000683,0.2666336265298832,0.33646983921521034,0.39021464421877905,0.4544688810211195,0.49149181379975815,0.49745542175197244,0.4964496642377503,0.48192286199371814,0.41738511139043766,0.3308684488523097,0.24413142318679837,0.15739439752128837,0.07109372019627402,0.012490290301452323,0.00046540782414794535,0.0,0.006415341807815,0.02866415032706149,0.061356366831409215,0.11610724563649288,0.18251187718309803,0.22991793573227826,0.2935880937940749,0.3588613966605019,0.41067830699343233,0.4592623801547884,0.4877162023375252,0.5103071032267747,0.5143108915204904,0.5340943346554887,0.5407582794158383,0.5397218470632685,0.5217247656648771,0.5316625700994475,0.5142713906205927,0.5137266404906642,0.5126200173559123,0.49173833965470237,0.49720890831126585,0.5135071485910281,0.5027173889270191,0.4952171871613462,0.5343123106539238,0.57764727536326,0.620862807240953,0.6547829448766773,0.6905123935716091,0.6720662642134316,0.6066166118888612,0.5600250795992894,0.5202501249720299,0.4923540946957896,0.4865075864903394,0.4695910115225246,0.47494566660779824,0.5321057400259948,0.5843549972987843,0.5859384494420823,0.5151021015822783,0.4291843975589602,0.36215982933978186,0.28820158216538694,0.2476423331474904,0.2690380070088323,0.3187266575106156,0.3924727496108744,0.45750704248787244,0.5212832608475848,0.5935137812418478,0.6513200078727897,0.7069136099269198,0.748468112104753,0.7778818626174502,0.805498436356709,0.8260761529000691,0.8464286707837143,0.867986412424675,0.8947933891347377,0.9236338965476394,0.9474541972429256,0.9705332688215691,0.9924305001207117,1.0,0.9807794518580133,0.9480765412627274,0.9049956162472768,0.8672707059848701,0.8317432942301393,0.788489173800901,0.7538368243822902,0.7317631838348433,0.7497769228018472,0.7620427021625247,0.7830043700833951,0.7845404551092701,0.802335907757417,0.811151098449419,0.8164094959088999,0.8371437738109444,0.8381952206085899,0.8381952206085899,0.8381942917311163,0.8347983122864076,0.815233577729269,0.8290891757527952,0.8152381573112324,0.8366168734847612,0.8397851525152058,0.8685673050939604,0.9095561996000265,0.9419635421322594,0.9838919611422972,0.9887877409840984,0.9479905573164977,0.8984674661307812,0.834890941166651,0.7937342493388995,0.7730786183539076,0.7521506235521294,0.7312174685250339,0.7416651745553171,0.7844617636746207,0.8388300675381561,0.8443511956913303,0.7661329064794353,0.6794324260775078,0.6025625659529892,0.5327290063256864,0.4670164933534675,0.4628910054720503,0.497773983209024,0.5503656556978216,0.6154263532776394,0.692552642496195,0.7606425298222064,0.8260710780678773,0.8793886986803416,0.9150323966843823,0.9193588683789882,0.9297743354003192,0.9461804947494947,0.9463514139812315,0.9467612541745742,0.9643467844005391,0.9658461105261127,0.9468556911301844,0.9462540575568656,0.9319108689748106,0.8902192916772789,0.8465384502399775,0.7921914081577883,0.7430129936996188,0.6899154386390594,0.6514732645206855,0.6055580840902568,0.5719302370405259,0.5857363203458874,0.5692147433465635,0.5676100022554493,0.5503595509096089,0.5400525531862908,0.515492194961154,0.48784568726049926,0.47050467104041616,0.4592129178106674,0.4396267893534267,0.41181455851506854,0.3909389028860284,0.37859326065721177,0.3779826697152835,0.35904195892323365,0.35151001466766996,0.3450299718263681,0.31727724757682907,0.29792087850767546,0.30421025883247665,0.33243067332435583,0.37027848862351576,0.4029046699836787,0.44450652664754475,0.4429175062284063,0.3875279056772456,0.3296623716485412,0.27815337861288425,0.235490193600016,0.21650450050578707,0.20211769587712514,0.19267809832031402,0.22054063028931603,0.2717713161359061,0.32696440866061227,0.3300695268356071,0.27237205481464466,0.18914849001402656,0.11347425642991515,0.047756127386366476,0.0048781850419183925,0.014716923834458662,0.07187548679485323,0.13611516137830693,0.17587015484145674,0.24225083088922172,0.3025415248442753,0.36041798398419544,0.4179805863758119,0.46462388174807145,0.49684690870800274,0.5338965384639476,0.5465165134576493,0.5689932971994711,0.5921089918548175,0.6174203002911032,0.6595339653849424,0.6897425590689297,0.7104625904598967,0.738489956599139,0.7568372774276568,0.7479225325003487,0.719353490481093,0.6892228448095699,0.6460202451032844,0.5910251886870235,0.5464909165524618,0.4841071787591966,0.4334675436729931,0.40507192578110285,0.3817965916684294,0.37874911747471085,0.3890838631931768,0.38833280448782137,0.4051997947018773,MI
0.16586583970511892,0.16748797159258677,0.2060963096417816,0.2729229867326395,0.3602079045599713,0.44468256594917976,0.5038007327667384,0.5212173518985073,0.4994857976571949,0.49747532099869884,0.4725164994122326,0.4013098559314199,0.3423884955526,0.2687148076136583,0.20010073092832714,0.14514921899645472,0.07159258958436743,0.02632439935204456,0.0015860388316437657,0.0027225746323944477,0.05527502452001043,0.13935997170747072,0.20009456601490339,0.26317404733246574,0.3262761532173486,0.3703493443621704,0.3738293252752345,0.4323141596825315,0.4901521582534616,0.4976234795667023,0.4923410052087305,0.4695368333719636,0.41977454195648134,0.3324542197042448,0.2444165045500175,0.15637878939578975,0.06885317413374104,0.01163002864568563,0.0004164923580165514,0.0,0.006851624044393212,0.02938819331128295,0.06272421511403792,0.11810026060363388,0.1857312372590436,0.23428789265291483,0.29770525216702337,0.3651343500093005,0.41672857424734344,0.44313757055108427,0.47001051338787336,0.4970069247371387,0.5257554459278553,0.5775768292277257,0.5806644976740984,0.5986685237141329,0.6296826078950741,0.5823370563564692,0.5166301527549408,0.4794626022536792,0.43656634498618585,0.42032595179891397,0.4207290206987673,0.41471056377579485,0.4146936136238506,0.41879080041431616,0.4597589165259186,0.5184251815469785,0.577242747727428,0.6389323728493683,0.7134279794783569,0.7847331660765708,0.8709273811412763,0.9212438395249998,0.8697158589069471,0.781966986981868,0.6962536061562292,0.6315284804775545,0.5711440678489104,0.5395947384857105,0.523761823465978,0.4840254160320936,0.47519541504797624,0.519002731127332,0.5758320113091799,0.601768330441725,0.6534925949791615,0.6755018264279076,0.6925324317999153,0.714527276701824,0.7360051148250846,0.7495009086325974,0.7725191658251513,0.7922676219753808,0.828470784690992,0.8462574331141162,0.8780435662485151,0.9103953895864989,0.9029991025176449,0.8613741085121052,0.8105994098359681,0.7817420906773314,0.7316594194316575,0.7103839082200261,0.6722699673110601,0.6425425546380867,0.6144245427580004,0.6082355641491071,0.6082226045500323,0.6082208034713319,0.6043807878902023,0.5824722663096478,0.5805759461422677,0.5805752925249972,0.5805752925249972,0.5805760042415806,0.5825390651756686,0.6032872411834282,0.5786595466387712,0.5571863461907314,0.5791467150333083,0.5806009303412183,0.5905423133195096,0.6321969726396097,0.6359251981937057,0.6474957372742307,0.639965779119136,0.5850706140094952,0.5404384387561252,0.5029246498537199,0.4513362172066526,0.41882025425606306,0.43720405629392145,0.42918911658318715,0.41486841886583514,0.4153016931460596,0.44150740506727937,0.4987393785419276,0.5658100404004869,0.6340756281680231,0.7183020107821432,0.7834814649705444,0.8622217939387853,0.8474541341779518,0.7622541578719333,0.6892261759843872,0.613840339897552,0.5443694623987958,0.4895252573123714,0.4701823913402836,0.454080465532956,0.3956728014771387,0.3643849565099999,0.4009808449928971,0.4617032756751729,0.5233295087575427,0.5605327502116784,0.6118067437464414,0.6262623032425698,0.6152835081811534,0.6512953274669164,0.6662621901492289,0.6891863385753365,0.7033662432254331,0.7324745384082347,0.7467294769721939,0.7722372020402841,0.8044227064321219,0.8277343674166633,0.8288250595938202,0.8043904634086299,0.7544052800078149,0.7251235711374755,0.6750743871333236,0.6428386808396858,0.610662539262854,0.5957789953822137,0.5794817201755982,0.5571224326124953,0.552930241531556,0.552927980499963,0.552927980499963,0.552927980499963,0.552927980499963,0.552927980499963,0.552927980499963,0.552927980499963,0.5533016315655268,0.569357700047465,0.5569523099505189,0.5647842685215276,0.5862907660613659,0.6225593123603255,0.6466415041003795,0.6881168911767728,0.6912421080391788,0.7039529745330673,0.7033299251550793,0.6475531318850787,0.6081241556572334,0.5607394873072828,0.517122008706171,0.49807329490012586,0.4976333564498936,0.4963574429594595,0.47490782222297634,0.49533060679029406,0.5599304165558174,0.6115764021329695,0.6695280536139214,0.7435650223396979,0.8086510574678969,0.8948212171941612,0.9764769143948109,0.9999999999999996,0.9269215263399091,0.8610684891858535,0.7771950905384766,0.6924676818383282,0.6310596495778769,0.5857547352435986,0.5575076777062979,0.5282536797668773,0.47993112009958727,0.478229150557516,0.5384673676325744,0.5801101300567493,0.6202167018612186,0.682749526462024,0.7047931607411297,0.7257174240985154,0.7461805740006437,0.7652792781362936,0.7778314199304464,0.8016097295765392,0.8307023613042657,0.8565994517245348,0.8756256611935069,0.907836483807309,0.9384494967046613,0.9392791112495993,0.9137217905876356,0.8628198773647449,0.8162760159366216,0.7600914696003858,0.7361314000410073,0.6991547168727004,0.6847586185536518,0.6418068859438351,0.6191489003170703,0.6082717835604181,0.6082226045500323,0.6082226045500323,0.6082226045500323,0.6082226045500323,MI
0.7831042607290559,0.760060532932429,0.7977307732899082,0.7870712916586422,0.758454048056298,0.7715883634540432,0.7559827585383854,0.7741473941560404,0.7598063710014289,0.8090241807792315,0.8580972528088848,0.90033264209913,0.9704766046518865,0.9891109304073611,0.9099276904458407,0.8575183498648968,0.7869530395902657,0.7248514365444345,0.7237878566019322,0.7476684067289341,0.7122845394222006,0.677253211440533,0.6155640434375798,0.5395905543104629,0.46483593365341314,0.39048634729970644,0.3489687205099461,0.4278918977710511,0.5396511197217091,0.634480320256225,0.6566580537448123,0.6520631732670878,0.5950481602745645,0.4857837332629851,0.3737329359666157,0.2616811665169996,0.1496324186187863,0.04382991296019423,0.002271321426247752,0.0,0.009615704745884024,0.03815489293737517,0.08100042092278503,0.15107016728447498,0.23763538232544956,0.3006590083501077,0.3781320373954511,0.4670999528048059,0.5322073025828393,0.5980370122242915,0.6382157387294463,0.597915097233285,0.5160773291339265,0.5099077047708693,0.5958591958023245,0.7077468646105096,0.8077034125777054,0.8581965989401876,0.905043017646225,0.9342685384687623,0.9495577011976994,0.9375591414442486,0.9659635389570038,0.9759032403084165,0.9342828231729499,0.9068677307741435,0.89861198829158,0.9440527626080986,0.9497319475059864,0.9316679057656145,0.9705840316153633,0.9975083017714965,0.9478300600813316,0.914938776455517,0.8372541568790952,0.8283544450669931,0.8293562717975576,0.8132376729773547,0.7585995211912273,0.7751803954286522,0.7901859986180559,0.796044196094309,0.7857996312457365,0.793344658746471,0.793360868454636,0.8126365966461577,0.8787406500902835,0.8972615311577696,0.9149236331488089,0.8508159907781447,0.7432214934712684,0.6750556125385829,0.6446877803858388,0.6426751504309918,0.6121192559031234,0.5721523080448216,0.5668227602236806,0.5081260646713002,0.45127305324008216,0.4492416215940116,0.415482372302697,0.3977795882299837,0.47300395748754553,0.5402931341691861,0.5956577729753727,0.6419262333400066,0.6643769887529993,0.6785715477405772,0.6920735504250191,0.7405495680280225,0.7500087224909731,0.749219734705691,0.7262840273196387,0.7546565747727589,0.7855066643835489,0.8017683800739297,0.7862732538682771,0.7621942862816766,0.7216102441374783,0.6804112163955409,0.6292188367865039,0.5557783437371224,0.5395499150164547,0.5728738374922164,0.582495058507428,0.5714843340980638,0.5705210432521044,0.539036952833472,0.5129401246523111,0.5585728287431273,0.5851547908058299,0.6480190242507575,0.6846838191794609,0.7380531392663361,0.7788568752137,0.7506883965845796,0.6934056703526341,0.6054898991288331,0.5719260641796122,0.548182652310282,0.5420258187539968,0.5445713450349476,0.550299862655125,0.5373084367845884,0.5159164126334224,0.48855126032192153,0.40734815373043,0.3622444875556807,0.3965980740996704,0.4900614504473557,0.5883344590374247,0.6343627405702978,0.6759950159230392,0.6982539460793911,0.748109924648606,0.7503106550487528,0.7698272907915653,0.788444687103202,0.7987532711391836,0.7986964257486902,0.8220756450123776,0.8489335054573424,0.863571133454216,0.8654253198215018,0.8405531571426081,0.8141634229835546,0.7669478170128237,0.7385759513595911,0.6720448137745985,0.6495373518184966,0.6515284727779243,0.6416538014238071,0.6177421001325509,0.649700980925422,0.6473896300753719,0.6578206457151667,0.6784121945445918,0.6809454264113057,0.7376385415433688,0.7852684121407076,0.8243839141101521,0.8806650598303785,0.8229809189399955,0.7537437364082766,0.7197350593022493,0.6550199981986387,0.6428968407449123,0.6460641561601621,0.6552369480208515,0.6333390858088714,0.6079473315067885,0.6202475260293738,0.5888818884299525,0.5049639260871217,0.4667020027754605,0.5014110641258824,0.5798658871869744,0.688314310996013,0.7500238660353764,0.7997682959255599,0.8538706500565487,0.8706298790396589,0.8609371117836142,0.8903158415615833,0.9075912079575774,0.9298925813787342,0.9576575371744767,0.9784679497415345,0.966803694900503,0.9875264594772748,1.0,0.9976937838328652,0.9674886027484719,0.9344027882659169,0.8694753336193495,0.8392396030728699,0.7930098133090402,0.7857447496464571,0.7857332857616779,0.7857332857616779,0.7857339259601588,0.7882365723019236,0.8364810738813331,0.8607975386975175,0.9260185667493666,0.9875834949767919,0.9577068350965234,0.9162129039283293,0.8492131287915621,0.773021426831173,0.7488925629374545,0.7213359462896545,0.7306397350784026,0.7125096999765166,0.6822247489232067,0.6785047511475488,0.656690188016074,0.5573247100886647,0.4655347916336261,0.43047291519732145,0.4697088830730527,0.5499557008282077,0.6581604127505889,0.7215523997527153,0.7821132560781203,0.8519847983196032,0.8694844777321009,0.9041087057104047,0.8858101217365331,0.8646112200891203,0.9051519151839997,0.8976941422026607,0.9063917624686741,0.9049742425738714,0.9282492656811012,MI
0.5782613446390981,0.5915936227229333,0.574252277306738,0.5913443091077308,0.6189700733208472,0.6455809358247073,0.6558769047737973,0.664637453830883,0.6241280595316203,0.5799786505118734,0.5412867496566136,0.5055980452138655,0.4735084189392653,0.4440462723351928,0.42085092947074454,0.34705598991094,0.2587899054065672,0.17046482039854682,0.08233157892372711,0.01598331414376597,0.001023699734034711,0.0,0.00547408509125491,0.028254506227826326,0.0610204007973838,0.11719776509207946,0.18421299529894153,0.23139804161367827,0.29944251380941456,0.3625238902397028,0.4164061665939469,0.46375215045734386,0.4870665111080381,0.495307026719475,0.48737174710169384,0.44684065877275536,0.39022024145409073,0.33154261304682375,0.27592901764753597,0.279445814246039,0.363070495861896,0.448621538546325,0.48920349335565483,0.4986805420345437,0.5488849884817784,0.6164091656192312,0.6854260202385145,0.7644539929827969,0.8318764851283378,0.9154596458664868,0.9849455712349133,0.9424283496559731,0.8759772957982026,0.7894793918173058,0.7017065559671387,0.6377735938679931,0.6059681783153561,0.5928673042003849,0.6058902554549146,0.6218863377374015,0.6437966196468556,0.6476623317510244,0.6683180742780905,0.6819206188732467,0.7036427109636083,0.7261079551211571,0.7448179928626946,0.7781583537950345,0.7854197705948023,0.8068917412064094,0.8112591033811949,0.8514629956032982,0.8744055423831618,0.8947596598524994,0.8935863506077837,0.8646559263843399,0.8136646325930244,0.7655566768412649,0.7284787655294753,0.6987646180528451,0.6382682070694594,0.6047420637694465,0.5536441218556245,0.5388847690324132,0.5386777813348829,0.5242338742236736,0.511952350138758,0.5121906429711114,0.5281849595471542,0.5421705804192385,0.5640985037406763,0.5540758861275359,0.5329445140397224,0.5133924638426466,0.5330791673084612,0.5412340459783316,0.556136439879495,0.5222847551810093,0.5253580729639973,0.5202381912785894,0.5291739732945633,0.4957754507159189,0.5097174910568132,0.5342503111234684,0.5153599050855941,0.525831725057059,0.5418303340132118,0.5823161399560659,0.5940167994692951,0.6138048963502589,0.5977556294886774,0.5739076565299399,0.5377336821357153,0.4955428066454104,0.44374658097780717,0.41089304941663496,0.37509636190894646,0.33798978247725486,0.3277696938128116,0.3845746759222335,0.4522502640334265,0.5301705512819339,0.6012269029792918,0.6893218209828245,0.7771424941759628,0.847002675525574,0.9273423700034051,1.0,0.954182981738076,0.8827024081282211,0.8149647508613551,0.7430414632453477,0.6704584717453397,0.6144069229672304,0.5951585301106128,0.6160130100348029,0.6032836622533022,0.5827819929262388,0.5685183314104068,0.599403433771645,0.6108912790839254,0.5953745490424209,0.6325388402151484,0.6500452229169591,0.6722371950287194,0.6958983691279581,0.7251555654668262,0.7040116813090087,0.7159034683688201,0.752761095273379,0.7701188891098267,0.7325450445559385,0.7641473812429984,0.7840709596860984,0.8060253600834377,0.7790111791603733,0.7279178291617479,0.66243146585962,0.6057298146065886,0.5874965782346262,0.5326922615729979,0.5047017222299637,0.4822114008676994,0.45896452174203084,0.43606601884526963,0.43201178587257605,0.4524119982649495,0.4448959473048264,0.4345631539850565,0.4558096573520185,0.4383776312278691,0.4316990761302897,0.4612847380868761,0.4662761870474874,0.4516159091202443,0.40979832985156417,0.4087421448195334,0.4288681845829805,0.4084107940083115,0.3809540100042783,0.3828423346419063,0.4171500486918598,0.394323990972957,0.3782357676586283,0.39872933126678944,0.4122841181039245,0.4313506564867273,0.45298329958024297,0.480141963807986,0.48493337572617534,0.48242752881663,0.43184583758838535,0.3992434721402214,0.37651138318588817,0.3445608188050011,0.3194037054550174,0.29849644851287094,0.3271016403764939,0.3912552665242073,0.470663722918764,0.5400554961853299,0.62681212084318,0.694566435861657,0.7749120563611402,0.8411880630718791,0.9166830592647468,0.8806232756640373,0.8070648029570551,0.73164062612467,0.6617698212106902,0.5944943414633581,0.5289710196484352,0.5179383207630837,0.5551753893668216,0.5401465292068153,0.5232305144589935,0.532987763862435,0.5467923547133431,0.5832671301554466,0.590117181650422,0.5701015118686197,0.5916291869406098,0.6174399350119817,0.6164639569768813,0.6024806392816107,0.6463373492035043,0.6931009033961306,0.7007576011596583,0.719119178987305,0.7525520142346176,0.7870449651880342,0.8173194987223686,0.8751525640090945,0.8867533896954152,0.8429805555045355,0.805135092290322,0.7758018940378699,0.7459234449192094,0.708604270056945,0.6870390240748039,0.6837617101711659,0.6822993845988625,0.6830603934618713,0.7237653947018572,0.7274094282025176,0.7291575344482588,0.7503887017400208,0.7541139631727667,0.7361396765300254,0.7078543208940937,0.6944224773953511,0.6718584894596376,0.630915626446984,0.627841751188404,0.6641155153992004,MI
0.26697256413834847,0.2700580883911665,0.30828578985406896,0.36561830669605033,0.39276078353942534,0.4053731999797652,0.43258362332941935,0.4342440998701842,0.42934462308475485,0.41388486402266667,0.4297364638545149,0.42325217461969133,0.4044542202165551,0.35554529511751376,0.3075270278604152,0.2589997600685461,0.1944674761019436,0.14592005274942288,0.0925759418205856,0.04173378424154972,0.00890891606054911,0.00014523658405263262,0.01597711901504839,0.0811805246776034,0.1383525377290331,0.1874063036814646,0.24187199412405436,0.28578660784525267,0.2897470956296031,0.33110218902553834,0.37934535754513243,0.42012038351382186,0.4129034146302577,0.4125249854936346,0.40574441388219995,0.3777921538826874,0.3139930219745488,0.24189334503030757,0.16976966876014377,0.09764938730297335,0.029362335434439224,0.0036179873514368133,0.0,0.0005934862413896624,0.017220956182767644,0.03690054859220204,0.0751478146681297,0.1324768339192106,0.17670450380822267,0.22053898181484222,0.28030542215832055,0.3221928628471815,0.3644777483269728,0.39056863685913923,0.4087842518783429,0.4123357543270516,0.3984958122800877,0.390863763216005,0.3913433018121242,0.4048039900269802,0.39273707820024795,0.3913250577088929,0.40480457060240704,0.3943367948853713,0.39846682658080335,0.39393061285071207,0.3962187719143988,0.39827772292724406,0.42814700680726636,0.4502666848418988,0.4767349700359058,0.46299484571312055,0.42826994970864307,0.41153474050173644,0.3812628785219081,0.3611231631419147,0.34754404782670356,0.33491784787705425,0.33599059626340644,0.3372377381272109,0.3264449642767153,0.35362642850168724,0.4075561993667791,0.4782448024384478,0.5345224511376987,0.6009747636962595,0.6537806801480803,0.6931226320762227,0.7526825329772806,0.8241706359946761,0.8807097428046555,0.9353900688693595,0.8998050128868398,0.8299292785536863,0.7755032390880507,0.7066890085612005,0.6521422223118734,0.5915827503489268,0.5444240891971934,0.514016358856348,0.46900363940083123,0.43585376530387787,0.42150130131041363,0.42255861874636524,0.41972727165243384,0.43235923965519474,0.4445998705818117,0.45822008215703036,0.49040500530151476,0.5035738618959851,0.5206261500294929,0.543516547356476,0.5685099859484133,0.6032177434550978,0.6317713410452623,0.6597073505823174,0.6865533721719359,0.7143760417403189,0.7372271487080169,0.7883549794044291,0.8195792738237082,0.8460498388088853,0.8641713491247578,0.8624656395865058,0.8265236162322989,0.7810246034287629,0.7312907725488622,0.6901497456005075,0.6425687756802247,0.5946034531738871,0.5635055333404191,0.5217028867157398,0.47885053051863924,0.4509851393790849,0.43415191971580125,0.41794286231140854,0.4125497001824403,0.4125377927816767,0.4125377927816767,0.4125377927816767,0.4125377927816767,0.4125377927816767,0.4125377927816767,0.4125377927816767,0.4124207423079449,0.4009832285738044,0.4002765081813564,0.4123987633848665,0.4125377927816767,0.41250527662747594,0.4037013839293757,0.3979150188954832,0.39899849409451926,0.3911442811634025,0.40421856734138073,0.41252139829560575,0.41184811155296686,0.3958109248037345,0.39090212529648927,0.4027896836751532,0.4329132768230153,0.4651196842437155,0.49793544094594555,0.498209215751944,0.4688749696601753,0.45280552506214455,0.4099423703561045,0.3854894974862364,0.3624208282138217,0.3589575667607492,0.35112266327460784,0.3334656695064089,0.32199028339615543,0.30766136898942165,0.3381706813518095,0.3929630259272532,0.4546079562323828,0.5111846298396236,0.577540207795074,0.6426303346564639,0.7003185451150906,0.7721898241844767,0.8374856893274436,0.8949834413101185,0.9664999788152211,1.0,0.9385985554973679,0.8671282475197164,0.8109098120041365,0.7441586117211654,0.6864459289455196,0.6325983116821012,0.5946948356767221,0.5444440072926717,0.494403487489703,0.45967689339154827,0.4418170457830084,0.43432946926501526,0.44192329149825094,0.45592364899861293,0.4682391329860791,0.4918129071139363,0.5030446183098607,0.5204355942880667,0.5423291835029578,0.5686026838752234,0.6078710407290031,0.6314620279502843,0.6620351404722791,0.69507532841356,0.7204425152647218,0.7474507434173829,0.7927312778852209,0.8269050786191219,0.8634732013570803,0.890342370990191,0.908459429017447,0.8932150455707872,0.8510745073582919,0.8049320440698637,0.7504080677297456,0.7157863279272569,0.6692528992394107,0.6156536028839774,0.5720949215332021,0.5378198410378343,0.49015338966744704,0.45587424008733146,0.4203395770220584,0.41255720167795484,0.4125377927816767,0.4125377927816767,0.41235649622510095,0.39895797708893666,0.3911669283962902,0.4045479771525704,0.4125221485382471,0.4125377927816767,0.4123717124026163,0.3994360217180133,0.40184711872488244,0.40792279128949493,0.4000014822861231,0.4093868458614969,0.39234439870745863,0.3908244397321181,0.3910439970499131,0.4035498385436913,0.40680837252904833,0.39249464235657516,0.40928694262585985,0.42998609018215905,0.45889534936878196,0.4949212569588761,0.5205967264258495,MI
0.13533081555839166,0.15428326158770167,0.15957749142666655,0.16566077245604172,0.16688436014478647,0.16655884568053603,0.15344302666546072,0.14037800711636628,0.12617437502792006,0.1020823542307534,0.09131414430370599,0.08018788246445174,0.08552761933013153,0.07427240107352251,0.07406338634603316,0.06496637401894789,0.058547063597682136,0.07150755534867548,0.05765664531491721,0.05352797782459895,0.038129215221856416,0.03706337493047629,0.03753756945189979,0.05398516133026243,0.08305829815253629,0.1222257857887965,0.1647401352130986,0.22061633551203208,0.2725145119506287,0.319137914581165,0.37729006762233297,0.43569152855255133,0.49409298948276925,0.5524944504129881,0.610895911343206,0.6692973722734243,0.7276437530302879,0.7773976125717796,0.8260838970027695,0.8843572975170795,0.9426046709086813,0.9867542562488314,1.0,0.9697523312055201,0.923098007547777,0.8719904800063909,0.821499841338198,0.7901244838204318,0.7445319096808314,0.7111112351636932,0.6678854070059002,0.6374161185258869,0.5927089111601127,0.5346030937643782,0.47620163283415984,0.4178005367219022,0.36057240498870335,0.3167761492964827,0.26114018487206225,0.20308292904014635,0.15800764384402122,0.10527667755072567,0.07504835037160085,0.07421295387320503,0.08300769824624421,0.0907705827028682,0.07572859425472611,0.0857853834005815,0.09461629442643682,0.11739938454355592,0.1522284429475449,0.1856898304505341,0.2186266598856932,0.2335557348306021,0.23827493327646776,0.2232676426839908,0.21160287837138148,0.18333429335801643,0.16159499854769965,0.14957713519110039,0.16235619445842575,0.14633719818203872,0.12967969135958057,0.11449294744807226,0.11124924832154015,0.111247048839346,0.111247048839346,0.111247048839346,0.11114546775665257,0.10188080567361535,0.09276463961612524,0.09270113036212857,0.09270113036212857,0.09270113036212857,0.09270113036212857,0.09269206869672875,0.08856074032367589,0.07474542668404549,0.07415521188491114,0.07415521188491114,0.07377350732978583,0.06006735545839925,0.055613205948135125,0.055609293407693716,0.05630170872582285,0.07051948987484069,0.07514070465273148,0.09168346577039976,0.11531970721835405,0.12995178049009848,0.14344149371275483,0.14839976920904663,0.15817025838664955,0.1647229876652192,0.14939342449018733,0.14502473104773195,0.12650886755642565,0.11164105727418816,0.09982131281849105,0.09082843970865184,0.07326366777013327,0.056551718988330446,0.046770253859726996,0.03695796875265689,0.026316360384886384,0.018555619325165917,0.01653816400680963,0.00121092941219203,0.012047829360733342,0.0184943137795055,0.021346746571425435,0.03939056405439745,0.06936899827685661,0.11959208929356135,0.16418861812064423,0.21008729673720028,0.26225595586297246,0.3206314612933294,0.3754754026271585,0.41967665032840795,0.4772926538106419,0.5356940301453905,0.5940942221435743,0.6499095125507699,0.6936140719390593,0.7507543836536086,0.8091554163192636,0.8675568772494819,0.9243436224743804,0.967115119354419,0.9985287100414157,0.9788032951338956,0.9286128671174216,0.8702490327053298,0.8142204446648775,0.7710429336571449,0.7135893893425438,0.6551879284123263,0.5967864674821071,0.5383850065518896,0.48001548609037226,0.42921608739881467,0.3816324221126499,0.32332508130823356,0.264924313003418,0.208149918033242,0.16482852103187895,0.11045059380939248,0.07087387596124017,0.05569255385781746,0.051333031207753343,0.03762607420526587,0.037067181726580856,0.041446612077356004,0.05534309264112691,0.06968214637147829,0.10651049907622845,0.14249864829308967,0.1633520709207743,0.18192115755413907,0.18539468858283126,0.1774413777241617,0.14938792592879402,0.12643558375185693,0.09679824502580248,0.07308605714361693,0.05752330872831779,0.05560961064070247,0.05707435930536153,0.07234436274685985,0.07415438707908839,0.07415521188491114,0.07413098484132208,0.06776322602752227,0.05574353666054366,0.055609293407693716,0.055609293407693716,0.056160200314907094,0.06980002158753962,0.06836484456337555,0.06637948155156304,0.06673848774637614,0.055707849891728056,0.056054069006720386,0.06929664042145323,0.07414131298681292,0.07415521188491114,0.07415521188491114,0.07415521188491114,0.07415521188491114,0.07415521188491114,0.0741580035353877,0.07782012995506182,0.09196685367340329,0.09378657701451765,0.10922010219398226,0.11786502686778766,0.13008048698523256,0.14388729763258468,0.14255700711179475,0.130052995823561,0.12938824304809682,0.11490216822126298,0.09551323767318287,0.07716280602126924,0.0630831549991937,0.05384643353186558,0.0385583707896755,0.03657810139329598,0.022691183869426368,0.018520967165222224,0.018305777090355857,0.007167923487366057,0.0,0.0010361040481692285,0.013728236021031126,0.007704667563422696,0.03467756876299388,0.07227958201895923,0.12048296955309246,0.17777993729481167,0.22091100974376854,0.2769978128489221,0.3353981105914414,0.3937449349841269,0.4435234558239758,0.49218602896990316,0.550458035835097,0.6088593275743768,0.6654516972402647,0.7087589059781862,0.7655186642785887,0.823919422008971,0.8814198791073546,0.9186241011515355,MI
0.04932038025378227,0.06647181556503612,0.082408269444874,0.08898093817208652,0.08880939832864199,0.06957058764511759,0.05173272050618638,0.0470045319229242,0.039826921027037665,0.04607728895054408,0.04830936331203528,0.048591203943155525,0.05525935345601862,0.057971139859502197,0.059792948614963315,0.06710275421838485,0.06746767049089009,0.061322938070467625,0.057645453785565515,0.0507376491440259,0.051085532742198625,0.057855580546155805,0.06421100381053724,0.07650020817345315,0.08788498364329644,0.10137663139288211,0.10513363304096535,0.09705185220283208,0.08502317067514276,0.0688510839527594,0.05458905760304278,0.03827223224081511,0.023584299537261266,0.012618482085872573,0.0027426089864472925,1.0208396357791472e-05,0.0,0.00013819389108982172,0.00646644285857767,0.02235479606393187,0.05466919512293922,0.0953105129247298,0.13034821605122726,0.16797054715110904,0.20395562153811664,0.2406345055322585,0.28170575293741695,0.32174202686994535,0.355245825262831,0.3953904633675678,0.43650517425395163,0.47762044449718744,0.5182933547315567,0.5520903536465938,0.5913082634828284,0.6324190340415135,0.673534418542385,0.7146498030432566,0.7557556627847262,0.7942228754517153,0.8286037146488956,0.869448315820734,0.9105635842786939,0.951307268749648,0.9837852331017924,0.9999999999999998,0.9812282566185184,0.9476636682641699,0.9070124730378539,0.8762016640140173,0.8437432253379915,0.8075099225957991,0.7808049382991549,0.7482786855103398,0.7083959474949759,0.667281848549165,0.6261664640482938,0.5850510795474226,0.543935695046551,0.5028203105456799,0.4617049260448085,0.42058954154393713,0.3794782733617197,0.3401602483278061,0.30643487124877034,0.2657909377174059,0.2246799224809115,0.18538692624641806,0.1516436437083819,0.11101212075885836,0.07312187438409934,0.041452033602299654,0.0369534770770521,0.04717953031809552,0.06781755322108696,0.08695197920496356,0.09591949221302265,0.1002407135276504,0.09318067000734431,0.06630219689612149,0.05808569700510202,0.057978376300768186,0.057978376300768186,0.057978376300768186,0.057978376300768186,0.057978376300768186,0.058060700725961256,0.06329629127193281,0.06760060158252124,0.0676178615419245,0.06420144664690541,0.05812380722650645,0.05801521337217985,0.062229807234059686,0.07023264181286204,0.078452846071009,0.0882878779388303,0.10348169110978533,0.11485299219107836,0.12136261679214089,0.12060222319168723,0.10523918585351333,0.08724409502768604,0.07065721575715678,0.05555502520083899,0.03685929576696223,0.02744945966158574,0.019805098375696772,0.016727399857433767,0.009960696314883721,0.00966324481490144,0.010313888831692486,0.028612303871508704,0.061584975878895776,0.09722811626199945,0.13325035742915858,0.16688239387619697,0.20628861661904097,0.24450869207218684,0.2790802686214102,0.3199800374408084,0.3610953906993586,0.40220881059473657,0.44172109919112623,0.4739214877496971,0.5002107728527505,0.5286675269870462,0.5568386548973911,0.582761733901308,0.6102379601212975,0.6442425604859896,0.6846806320750514,0.7183342431841868,0.7578524986134585,0.7989647620427391,0.8400801215497531,0.8809341361779046,0.9154468655702221,0.9533033694300321,0.9797930626383378,0.9670848340013947,0.9289342413393527,0.8880391804903705,0.8534359848699313,0.815247079081481,0.7741439538878361,0.7330285693869636,0.6919287388866564,0.6547243378410725,0.6282386849479018,0.5960216753333463,0.5564389553088016,0.5153254505321196,0.47421006603124827,0.43314101077068323,0.3966383803713962,0.3604579179650884,0.3194115907445576,0.27830330830353045,0.23977968299991304,0.20543086636064922,0.1646136624804131,0.12431823173580092,0.0908506418220365,0.051632417329586566,0.031184001037812603,0.03956770176500801,0.058531715709223775,0.07679982258920437,0.08591805669533081,0.0860372614140541,0.07232163565241723,0.05352708011485974,0.04835271471936098,0.04831531358397356,0.04831531358397356,0.04831676890164216,0.04962529854199316,0.05724288510949482,0.060073483917494785,0.0672049988427994,0.07064963450945783,0.076153121326485,0.06871861935957346,0.06428254284250268,0.058156031121987306,0.06154722152133418,0.06754419726718441,0.07350831924367895,0.08907927473134913,0.10071972839828014,0.11800003300332662,0.12056025555829075,0.12336851016021422,0.11361212190826775,0.0989398412842113,0.08383989183060314,0.06610748747672401,0.050570829308003384,0.03655957371020957,0.023444383405916147,0.015308902192337381,0.00967291832503614,0.004465804067026902,0.00013621925427353965,0.005631467397400947,0.020367848305343994,0.04726406656728521,0.08227294912278382,0.11610230110211917,0.15493434869995415,0.18967135395082835,0.2277237474271514,0.2688226117743169,0.30972009145697643,0.3444297753749681,0.38252143817023265,0.4236210906315585,0.4647364751324299,0.50585175965787,0.5465536465952445,0.5804222673462831,0.6195400619848381,0.6606503349199919,0.7017657194208631,0.7428811039217342,0.7839964884226058,0.825111872923477,0.8662272574243481,0.9073385862614669,0.9462989921852418,0.9714554667205093,0.9631925097677121,0.9289744170328935,0.8960724849514168,MI
0.11988893500275388,0.10687255261289952,0.10678711235372074,0.11280412766158587,0.1359799600303857,0.17848127316417806,0.21859950276974693,0.1929749840661925,0.1598282400321409,0.135779095037857,0.11284930517241243,0.10803194006806116,0.1386042002336776,0.1607079077934035,0.16290494096591512,0.2097576245003676,0.2376873861060247,0.2641507939291907,0.28004537579085476,0.26899971022104285,0.2507174330156525,0.22188985210906154,0.17608995387940762,0.11882761954389842,0.09096747836000585,0.07175173785705358,0.06591709996057116,0.06129071263448438,0.08550420832524264,0.16442305718814154,0.24499728111262709,0.3260466861539637,0.4237034455515172,0.509013848892252,0.6108039795402709,0.7131265828972246,0.7979673651314139,0.8857905216499766,0.9065442698653721,0.8448523270121004,0.7543047226086497,0.6875922491336617,0.5977272596244791,0.5048444308297872,0.41526286663350653,0.3186482726726565,0.2175885681066454,0.13807423862225576,0.1071596078290753,0.10678110572452582,0.10679265309150754,0.11429498551888173,0.1367384248893737,0.17489634959360956,0.22038902471845834,0.2363394158968921,0.24394843938243582,0.2178406861598461,0.18466656811269377,0.16504434270426316,0.15836802579872078,0.13536872560008995,0.11219306748101232,0.10419887881261491,0.08062409075633248,0.06797666715628647,0.11215755080810741,0.19296865352611015,0.27715719588009247,0.37219133077867994,0.458370899970471,0.561403995009381,0.6455874428635395,0.7506648684616284,0.8538733496072997,0.924424587422612,0.9800619698213389,1.0,0.9385944936197275,0.8495797663215452,0.7531062291055175,0.6457352157458054,0.5383074021928378,0.43184130328093406,0.34524914009656715,0.24523863519337397,0.15563854780502595,0.08847360130453552,0.10235411021493146,0.10549175890876672,0.0899029901634103,0.09861428385839144,0.08838388467816483,0.12881594490430182,0.15758718202708177,0.19038847445813012,0.2326804826277149,0.26541215309242183,0.2986239566370754,0.28913500205104015,0.2763225023755034,0.24968081592971814,0.20426934419805054,0.1777655556309954,0.12017438710488904,0.07803421443665393,0.04453159853052391,0.021453752914859514,0.03288594959966851,0.07802393251070416,0.1409753198136361,0.23149634701062105,0.31596246217935864,0.4193214184634355,0.5120902368700335,0.6055153612697142,0.7127572462079881,0.8120823764554581,0.8968321435259492,0.9411619896528762,0.8811064943190061,0.7785001840468304,0.6939038734441496,0.5945855143107348,0.5090327928134322,0.4116010536133041,0.32369651292491497,0.2286482253565989,0.14926640897395682,0.12056618357074189,0.11464808071697252,0.10742994373126535,0.1345883787529365,0.1823706668868308,0.18174272366844413,0.17957557862331885,0.1933807018251832,0.18777459844360234,0.1814910501341247,0.18449576417254487,0.15823515720636827,0.1395806333040337,0.1694382989790757,0.20671319510126018,0.25766621589856076,0.30274152032746837,0.308336179697128,0.28757123475990554,0.26353783664203334,0.22005797828378526,0.18029131792726627,0.14986407291084358,0.1097833729062101,0.08264799937140221,0.056287978472154165,0.04964407803111559,0.08094214958176771,0.16921614076677916,0.25383492867820134,0.3539351049759718,0.43822858356428096,0.5423583523237232,0.6331895361256148,0.728650302918064,0.8356266636536525,0.9253577991252442,0.9946205274517022,0.9772563820485072,0.9008404810920076,0.7973345069970383,0.712490623197926,0.6101239160772156,0.5154387909868818,0.4240998002092544,0.3329731215872034,0.23817260219001923,0.14765981412046703,0.11229904502638721,0.12824378285418625,0.16098032841557508,0.19068622641704103,0.24646433158169767,0.29016308106955346,0.3089369470960257,0.299354871940559,0.2656909882417722,0.24928318611002975,0.20807750425651061,0.19367182654102155,0.2045009807568059,0.21702423111232072,0.1764006540617684,0.12448216256624178,0.07327284136665924,0.021050225393484112,0.008235095928485592,0.06141933256903265,0.14105912226558104,0.23625624903572273,0.33158469670948776,0.4223881604518196,0.5295662644393628,0.6307965929063242,0.7166498688057281,0.8222374545935569,0.8985631277135919,0.8930173126435337,0.8188171733495917,0.7404525184919502,0.6796377427774631,0.5857716000998767,0.48326675393876517,0.3983866610602096,0.2952813737259561,0.21149364312006114,0.14138999211272996,0.13571200573032716,0.1356994346434215,0.13086668444433336,0.10881956463103215,0.12671761937339454,0.15426248627463668,0.1949007910685907,0.22975597048367913,0.27490208024136376,0.26880518967447653,0.2479250382104352,0.22403247263168957,0.2016122538415317,0.17517013283775196,0.15597133229727156,0.12190721163677676,0.07584187469024428,0.0387091717639203,0.0,0.025934035909598308,0.09468574382732609,0.17679153551933346,0.27976994306212255,0.3649826903160367,0.46696584020420495,0.5727796531040745,0.6576249791091415,0.7597347377061237,0.845233395528898,0.9021973824671772,0.8654132272793298,0.7804699301384783,0.7179869009730302,0.645456198522778,0.5412459058191548,0.44958141906378124,0.35723022899835843,0.27307146342120703,0.1841518782337319,MI
0.10349002626781534,0.10387253206412383,0.11872573792884777,0.14172471396649167,0.1568625176699121,0.1430177492913054,0.14402190314100682,0.16402840560395582,0.1826527582186328,0.2001678545043224,0.22579944778357852,0.25039777309284394,0.2773215766762944,0.3116158052875182,0.33923143828386815,0.3669266618048077,0.38766155575823413,0.40793389876083586,0.39342336746835516,0.3719853342869799,0.34494535752506383,0.31218177661020796,0.2774748811903778,0.24535161494506275,0.2258177079720327,0.1924963215332034,0.16436774468315685,0.15022531987129817,0.12433478657703345,0.1012592238382557,0.06560110677319475,0.020473354627355,0.0494602986937438,0.10317510491528115,0.16943133266943722,0.23157096472340077,0.2893777221337337,0.3583460366989697,0.41596290566690186,0.47833010676581456,0.5466676339790362,0.6010818419281017,0.6674165078435883,0.7366780470821261,0.7953726942899615,0.8566095865152477,0.9252792541866919,0.978309310169819,1.0,0.9674457639428922,0.9092845993039558,0.8400243029822971,0.7706036583969191,0.7011830138115416,0.6317660642604523,0.5651137102655128,0.5108071497927225,0.44263801857194673,0.37321796093003945,0.3054269559145628,0.25141466084660635,0.18465412499623346,0.12919291583937254,0.08765477366266516,0.08427721160277324,0.07598595987163614,0.06470414556675985,0.05381848420970181,0.06437121568936366,0.07894335660605778,0.12295028778762118,0.15684867809304803,0.16931305564732968,0.17030447821881278,0.14224367433173146,0.12399610604645694,0.11929834657913174,0.09455319940354423,0.10061167145937322,0.09079513395733096,0.08820446552857897,0.09415092661216917,0.0860695531439557,0.1012204146520852,0.10392283628709764,0.11808666260309275,0.13822241321743434,0.16521137241943729,0.18357207493275718,0.20573952518081784,0.23329934955794807,0.25439392312290643,0.2868457180729709,0.3106809028300628,0.3380430957510665,0.34907378508190545,0.3315649034639616,0.2976150416630716,0.26880481299279246,0.23620076201452767,0.20413785905446202,0.18064417172476688,0.14817209472646686,0.12237990372295648,0.10700695834195617,0.09458133081897158,0.08082654356482033,0.03391816956019422,0.0,0.054325050099707006,0.10842968621602234,0.1698215526330631,0.22618105661013033,0.292388563811695,0.3466683093857008,0.414845254469141,0.4779563215180138,0.5349139501050892,0.603994111392014,0.6733663873326039,0.7336875475970515,0.7932331448997236,0.8608029188100867,0.9134520756077866,0.9432377118082291,0.9073781713938178,0.843811056114367,0.7882121682513787,0.7191948567309909,0.6497744240974224,0.5811241524153137,0.526321413744808,0.47170589418166653,0.42869572850490245,0.38289955433095324,0.33206536420390975,0.2777066068304346,0.20928589776679063,0.14718407696442704,0.08992949907418124,0.04817583327368524,0.046065708710022246,0.040982733709669095,0.027798187169735034,0.045858227451678335,0.06472824783114195,0.08200685352851877,0.12688593782164048,0.15799477156018904,0.16089841207587519,0.1585208573359953,0.12239598151559283,0.11753490927899879,0.10642492377777035,0.07898064848169195,0.06670010313392982,0.08162612790562918,0.08434834971733407,0.08247224008942666,0.07334482544954657,0.09372378299036033,0.11103877217589986,0.12814328496508187,0.1517096698055722,0.18435073476394237,0.2097118909504747,0.23285807266180392,0.2541846443635234,0.2760426909471452,0.3052976510554961,0.33208138837515877,0.33256435196868006,0.31857457149265267,0.2977925488503885,0.2561704747670399,0.22538434167039245,0.18750340451449254,0.16488538426950106,0.14656141863241645,0.11464273495896782,0.09424889521164204,0.07637992244589853,0.04407807040577838,0.01662425670262735,0.056941907119890445,0.11317223713893299,0.17660323794101984,0.24600658124189945,0.3124257258340295,0.36679462157671905,0.43510582628365757,0.49789497913002156,0.5551356506581828,0.6242351907580428,0.6876686611289835,0.7443410294329729,0.810302746123956,0.8642770639800088,0.9047205134321228,0.8928882483814249,0.8307507432812686,0.7714286641274861,0.7108928617867285,0.6415187841408674,0.572154612988363,0.5102297123836967,0.45219243068556825,0.3830148731136451,0.32055921191588244,0.2630264254939898,0.19384943824705214,0.12444052082013135,0.06273423964826863,0.06196567150682197,0.07423822412411907,0.0800633546799494,0.07139820169169475,0.09684925899838248,0.0898387860259362,0.09599826030718539,0.136442062852268,0.16570500471439287,0.1839015364389769,0.19817340418563667,0.1829736046707806,0.15071608662744707,0.15637258236351048,0.13321793911520263,0.09525262703125348,0.08440171266332364,0.0857251251447324,0.10090072210090639,0.10353134102755135,0.11209676977957894,0.12249931957452809,0.12262760936973027,0.1228157273250221,0.13403099033613364,0.1431087155570525,0.16136370691358737,0.18079745062966612,0.20620696076945766,0.23689939345495636,0.26286627714960176,0.30014507889485165,0.31392468169119203,0.32337331793259727,0.3232251476319905,0.29816765465602524,0.2746325200092459,0.24942507723656515,0.22781050079070742,0.1899808332371804,0.15834326313551106,0.1370379460125788,MI
0.425731220714181,0.3813251866530436,0.3395839951589261,0.28962165926206396,0.2617220384065453,0.22766584695215641,0.22344801725914376,0.22344801725914376,0.22344801725914376,0.2232431435150417,0.20235846102116373,0.1825862637450344,0.2062106282592424,0.22112586539690948,0.18868790078517605,0.1823817029373931,0.1824175279001281,0.20169114755091844,0.20227775109689716,0.18177033414881016,0.15299006213459343,0.14133191063042005,0.1413153886156424,0.1413153886156424,0.1413153886156424,0.14202121102132725,0.1719251299325073,0.21159693451765005,0.2602983972290547,0.30352626383104386,0.3598052722467058,0.41656841245880205,0.47353070782184137,0.5482788859226932,0.6061204185897058,0.6630295408947138,0.7423059395858616,0.7966760917216877,0.8133019913694595,0.8347766817815989,0.8008539406610202,0.7962708964299665,0.7624930493547426,0.719897757996188,0.6486918630507725,0.6238650318951651,0.5733335575418099,0.5477404454487367,0.5134443952201719,0.5008875733623217,0.47052097218098954,0.453671181014041,0.4290166288679478,0.42670989184544883,0.394223905922952,0.3710637759707076,0.31809445008814574,0.30353495465974945,0.26402040886063194,0.20792016523847057,0.14083785618903644,0.06711539499893249,0.06694435118664366,0.1498674689656907,0.2486408156889608,0.3557896832412002,0.4357167713596066,0.5460741118519818,0.6361739459588893,0.7310259773442018,0.8290001341719906,0.8772672893420221,0.8675845281941417,0.8039328794215708,0.7156569991880115,0.6237912624630821,0.5235167245016079,0.43854554809265966,0.3261943252484647,0.21330222195612336,0.10041842056724803,0.0,0.010149348848159434,0.05593282347337869,0.059180592480104544,0.05720859444632698,0.024992198449474756,0.018116445650391277,0.01814932609564135,0.03643278682119977,0.05894692360946063,0.06061609879212693,0.09442113615285574,0.11912616473769067,0.17084483246479376,0.21036533211795838,0.28186829516308887,0.3376748788004562,0.3399562459826244,0.2913211011447894,0.26480345851490483,0.2625824517291866,0.22274862374476623,0.15146531133033037,0.14135710261334822,0.16000683064198817,0.22522870790062832,0.2737333927469896,0.3045498539060594,0.3055806459026442,0.30444238097234955,0.2736050203017024,0.26541227331371786,0.2965969990403421,0.3055729574403232,0.30558052321441576,0.30293775990041283,0.26961281915269364,0.2581558083113258,0.2245878974478197,0.22344801725914376,0.22158132466703773,0.18954223321212726,0.1823818665216983,0.1896055170956048,0.22162614633220024,0.23691594104409575,0.2653366457162969,0.3001834084994952,0.34325786619193277,0.4278080332315941,0.4967273197333757,0.5536012920675715,0.6287533144781348,0.7046188168487122,0.7629892535778797,0.8043882248994789,0.8426627901083963,0.8717339408933444,0.8406757907555278,0.8275623971207704,0.7971797620503631,0.7635861099916621,0.725717101736084,0.7016185138107627,0.6169640416508715,0.5870352106702477,0.5532750788671326,0.5399479279900623,0.4885155885034633,0.46885927873817135,0.43838516229180247,0.4170464870593946,0.38656546487758536,0.3540606260330401,0.34776628261405396,0.37860497588714015,0.3520567552040612,0.34065896952550556,0.2891457399737005,0.2153379279360843,0.1656695408632407,0.21152104656665482,0.29635170385193366,0.40881008700163246,0.5168198798244434,0.5962544553263482,0.706420491517668,0.8192825770900924,0.9146667198973475,0.9726301693956092,1.0,0.9519287065435336,0.8553033523273772,0.7742169721477223,0.6688947813610637,0.558468405526428,0.4786004189220012,0.3712888345173315,0.2616107205071243,0.18322202754154837,0.11129169298468256,0.13854114680554286,0.14131481607057594,0.1413153886156424,0.1413153886156424,0.14040401098984567,0.11046258092943351,0.10106765314973742,0.13147178747296362,0.14397429767567882,0.17936532934682425,0.22393978804768722,0.29416359896193267,0.3364963249123303,0.39222038850306173,0.42748277267340473,0.4286329248467222,0.40993606311173014,0.3571698689180831,0.335234260626744,0.28395397801250866,0.24123908103380742,0.184255646151243,0.1823817029373931,0.18694759398953398,0.2197486569588163,0.18983243242314973,0.16571012232008364,0.18269413156148673,0.21041774005276004,0.20944925062193498,0.18282017538244588,0.19863912713612386,0.22317378724942483,0.2231490171545616,0.19731079360575432,0.18240624058310217,0.1823817029373931,0.1823817029373931,0.1823817029373931,0.1823817029373931,0.18157779824530618,0.15317103281627098,0.1748245797599317,0.1606217637306493,0.14373331989761695,0.17791649487346461,0.20338273789393124,0.25841092819788347,0.3146081947533581,0.3788678745722809,0.45382919965042134,0.5249678059518894,0.591409307624505,0.6661418091339044,0.7154881352937741,0.7627822974196539,0.7980858004847882,0.7983671343543568,0.7876276015889925,0.757895907112073,0.7393285169353048,0.6864791631467568,0.6642780664478618,0.6132809036088238,0.5751777698932443,0.522293905627321,0.5086787758574118,0.47586332786922103,0.4549327433939867,0.4622374883008078,0.42231721563033275,0.38844514041880807,0.38771327454614557,MI
0.425731220714181,0.3813251866530436,0.3395839951589261,0.28962165926206396,0.2617220384065453,0.22766584695215641,0.22344801725914376,0.22344801725914376,0.22344801725914376,0.2232431435150417,0.20235846102116373,0.1825862637450344,0.2062106282592424,0.22112586539690948,0.18868790078517605,0.1823817029373931,0.1824175279001281,0.20169114755091844,0.20227775109689716,0.18177033414881016,0.15299006213459343,0.14133191063042005,0.1413153886156424,0.1413153886156424,0.1413153886156424,0.14202121102132725,0.1719251299325073,0.21159693451765005,0.2602983972290547,0.30352626383104386,0.3598052722467058,0.41656841245880205,0.47353070782184137,0.5482788859226932,0.6061204185897058,0.6630295408947138,0.7423059395858616,0.7966760917216877,0.8133019913694595,0.8347766817815989,0.8008539406610202,0.7962708964299665,0.7624930493547426,0.719897757996188,0.6486918630507725,0.6238650318951651,0.5733335575418099,0.5477404454487367,0.5134443952201719,0.5008875733623217,0.47052097218098954,0.453671181014041,0.4290166288679478,0.42670989184544883,0.394223905922952,0.3710637759707076,0.31809445008814574,0.30353495465974945,0.26402040886063194,0.20792016523847057,0.14083785618903644,0.06711539499893249,0.06694435118664366,0.1498674689656907,0.2486408156889608,0.3557896832412002,0.4357167713596066,0.5460741118519818,0.6361739459588893,0.7310259773442018,0.8290001341719906,0.8772672893420221,0.8675845281941417,0.8039328794215708,0.7156569991880115,0.6237912624630821,0.5235167245016079,0.43854554809265966,0.3261943252484647,0.21330222195612336,0.10041842056724803,0.0,0.010149348848159434,0.05593282347337869,0.059180592480104544,0.05720859444632698,0.024992198449474756,0.018116445650391277,0.01814932609564135,0.03643278682119977,0.05894692360946063,0.06061609879212693,0.09442113615285574,0.11912616473769067,0.17084483246479376,0.21036533211795838,0.28186829516308887,0.3376748788004562,0.3399562459826244,0.2913211011447894,0.26480345851490483,0.2625824517291866,0.22274862374476623,0.15146531133033037,0.14135710261334822,0.16000683064198817,0.22522870790062832,0.2737333927469896,0.3045498539060594,0.3055806459026442,0.30444238097234955,0.2736050203017024,0.26541227331371786,0.2965969990403421,0.3055729574403232,0.30558052321441576,0.30293775990041283,0.26961281915269364,0.2581558083113258,0.2245878974478197,0.22344801725914376,0.22158132466703773,0.18954223321212726,0.1823818665216983,0.1896055170956048,0.22162614633220024,0.23691594104409575,0.2653366457162969,0.3001834084994952,0.34325786619193277,0.4278080332315941,0.4967273197333757,0.5536012920675715,0.6287533144781348,0.7046188168487122,0.7629892535778797,0.8043882248994789,0.8426627901083963,0.8717339408933444,0.8406757907555278,0.8275623971207704,0.7971797620503631,0.7635861099916621,0.725717101736084,0.7016185138107627,0.6169640416508715,0.5870352106702477,0.5532750788671326,0.5399479279900623,0.4885155885034633,0.46885927873817135,0.43838516229180247,0.4170464870593946,0.38656546487758536,0.3540606260330401,0.34776628261405396,0.37860497588714015,0.3520567552040612,0.34065896952550556,0.2891457399737005,0.2153379279360843,0.1656695408632407,0.21152104656665482,0.29635170385193366,0.40881008700163246,0.5168198798244434,0.5962544553263482,0.706420491517668,0.8192825770900924,0.9146667198973475,0.9726301693956092,1.0,0.9519287065435336,0.8553033523273772,0.7742169721477223,0.6688947813610637,0.558468405526428,0.4786004189220012,0.3712888345173315,0.2616107205071243,0.18322202754154837,0.11129169298468256,0.13854114680554286,0.14131481607057594,0.1413153886156424,0.1413153886156424,0.14040401098984567,0.11046258092943351,0.10106765314973742,0.13147178747296362,0.14397429767567882,0.17936532934682425,0.22393978804768722,0.29416359896193267,0.3364963249123303,0.39222038850306173,0.42748277267340473,0.4286329248467222,0.40993606311173014,0.3571698689180831,0.335234260626744,0.28395397801250866,0.24123908103380742,0.184255646151243,0.1823817029373931,0.18694759398953398,0.2197486569588163,0.18983243242314973,0.16571012232008364,0.18269413156148673,0.21041774005276004,0.20944925062193498,0.18282017538244588,0.19863912713612386,0.22317378724942483,0.2231490171545616,0.19731079360575432,0.18240624058310217,0.1823817029373931,0.1823817029373931,0.1823817029373931,0.1823817029373931,0.18157779824530618,0.15317103281627098,0.1748245797599317,0.1606217637306493,0.14373331989761695,0.17791649487346461,0.20338273789393124,0.25841092819788347,0.3146081947533581,0.3788678745722809,0.45382919965042134,0.5249678059518894,0.591409307624505,0.6661418091339044,0.7154881352937741,0.7627822974196539,0.7980858004847882,0.7983671343543568,0.7876276015889925,0.757895907112073,0.7393285169353048,0.6864791631467568,0.6642780664478618,0.6132809036088238,0.5751777698932443,0.522293905627321,0.5086787758574118,0.47586332786922103,0.4549327433939867,0.4622374883008078,0.42231721563033275,0.38844514041880807,0.38771327454614557,MI
0.13533081555839166,0.15428326158770167,0.15957749142666655,0.16566077245604172,0.16688436014478647,0.16655884568053603,0.15344302666546072,0.14037800711636628,0.12617437502792006,0.1020823542307534,0.09131414430370599,0.08018788246445174,0.08552761933013153,0.07427240107352251,0.07406338634603316,0.06496637401894789,0.058547063597682136,0.07150755534867548,0.05765664531491721,0.05352797782459895,0.038129215221856416,0.03706337493047629,0.03753756945189979,0.05398516133026243,0.08305829815253629,0.1222257857887965,0.1647401352130986,0.22061633551203208,0.2725145119506287,0.319137914581165,0.37729006762233297,0.43569152855255133,0.49409298948276925,0.5524944504129881,0.610895911343206,0.6692973722734243,0.7276437530302879,0.7773976125717796,0.8260838970027695,0.8843572975170795,0.9426046709086813,0.9867542562488314,1.0,0.9697523312055201,0.923098007547777,0.8719904800063909,0.821499841338198,0.7901244838204318,0.7445319096808314,0.7111112351636932,0.6678854070059002,0.6374161185258869,0.5927089111601127,0.5346030937643782,0.47620163283415984,0.4178005367219022,0.36057240498870335,0.3167761492964827,0.26114018487206225,0.20308292904014635,0.15800764384402122,0.10527667755072567,0.07504835037160085,0.07421295387320503,0.08300769824624421,0.0907705827028682,0.07572859425472611,0.0857853834005815,0.09461629442643682,0.11739938454355592,0.1522284429475449,0.1856898304505341,0.2186266598856932,0.2335557348306021,0.23827493327646776,0.2232676426839908,0.21160287837138148,0.18333429335801643,0.16159499854769965,0.14957713519110039,0.16235619445842575,0.14633719818203872,0.12967969135958057,0.11449294744807226,0.11124924832154015,0.111247048839346,0.111247048839346,0.111247048839346,0.11114546775665257,0.10188080567361535,0.09276463961612524,0.09270113036212857,0.09270113036212857,0.09270113036212857,0.09270113036212857,0.09269206869672875,0.08856074032367589,0.07474542668404549,0.07415521188491114,0.07415521188491114,0.07377350732978583,0.06006735545839925,0.055613205948135125,0.055609293407693716,0.05630170872582285,0.07051948987484069,0.07514070465273148,0.09168346577039976,0.11531970721835405,0.12995178049009848,0.14344149371275483,0.14839976920904663,0.15817025838664955,0.1647229876652192,0.14939342449018733,0.14502473104773195,0.12650886755642565,0.11164105727418816,0.09982131281849105,0.09082843970865184,0.07326366777013327,0.056551718988330446,0.046770253859726996,0.03695796875265689,0.026316360384886384,0.018555619325165917,0.01653816400680963,0.00121092941219203,0.012047829360733342,0.0184943137795055,0.021346746571425435,0.03939056405439745,0.06936899827685661,0.11959208929356135,0.16418861812064423,0.21008729673720028,0.26225595586297246,0.3206314612933294,0.3754754026271585,0.41967665032840795,0.4772926538106419,0.5356940301453905,0.5940942221435743,0.6499095125507699,0.6936140719390593,0.7507543836536086,0.8091554163192636,0.8675568772494819,0.9243436224743804,0.967115119354419,0.9985287100414157,0.9788032951338956,0.9286128671174216,0.8702490327053298,0.8142204446648775,0.7710429336571449,0.7135893893425438,0.6551879284123263,0.5967864674821071,0.5383850065518896,0.48001548609037226,0.42921608739881467,0.3816324221126499,0.32332508130823356,0.264924313003418,0.208149918033242,0.16482852103187895,0.11045059380939248,0.07087387596124017,0.05569255385781746,0.051333031207753343,0.03762607420526587,0.037067181726580856,0.041446612077356004,0.05534309264112691,0.06968214637147829,0.10651049907622845,0.14249864829308967,0.1633520709207743,0.18192115755413907,0.18539468858283126,0.1774413777241617,0.14938792592879402,0.12643558375185693,0.09679824502580248,0.07308605714361693,0.05752330872831779,0.05560961064070247,0.05707435930536153,0.07234436274685985,0.07415438707908839,0.07415521188491114,0.07413098484132208,0.06776322602752227,0.05574353666054366,0.055609293407693716,0.055609293407693716,0.056160200314907094,0.06980002158753962,0.06836484456337555,0.06637948155156304,0.06673848774637614,0.055707849891728056,0.056054069006720386,0.06929664042145323,0.07414131298681292,0.07415521188491114,0.07415521188491114,0.07415521188491114,0.07415521188491114,0.07415521188491114,0.0741580035353877,0.07782012995506182,0.09196685367340329,0.09378657701451765,0.10922010219398226,0.11786502686778766,0.13008048698523256,0.14388729763258468,0.14255700711179475,0.130052995823561,0.12938824304809682,0.11490216822126298,0.09551323767318287,0.07716280602126924,0.0630831549991937,0.05384643353186558,0.0385583707896755,0.03657810139329598,0.022691183869426368,0.018520967165222224,0.018305777090355857,0.007167923487366057,0.0,0.0010361040481692285,0.013728236021031126,0.007704667563422696,0.03467756876299388,0.07227958201895923,0.12048296955309246,0.17777993729481167,0.22091100974376854,0.2769978128489221,0.3353981105914414,0.3937449349841269,0.4435234558239758,0.49218602896990316,0.550458035835097,0.6088593275743768,0.6654516972402647,0.7087589059781862,0.7655186642785887,0.823919422008971,0.8814198791073546,0.9186241011515355,MI
0.13228363413010458,0.13910892661716456,0.1560064570559665,0.17553569593689256,0.20689006514084118,0.23652093883216452,0.26543866312190634,0.30067743044071715,0.3461192196013525,0.3906064388260768,0.4241189814296811,0.43751711361600076,0.45272322160760803,0.4401355866566128,0.41203359695542163,0.38614353798559753,0.3456943620294868,0.3101614008520239,0.26848743396631125,0.22990791145552691,0.18790700160324958,0.1507133543258945,0.1314745472275356,0.11679977174904987,0.10080382311328462,0.08900545245308278,0.09423390082793803,0.1064847797671149,0.129608631440973,0.1663591879828985,0.23386532304474095,0.28979587377383,0.3553694626492776,0.42569268523654236,0.4881714220635258,0.5468858985939162,0.6170595473428393,0.6874247162930152,0.7565187090061158,0.8112085148777748,0.8787633343622283,0.948326928378465,0.9964784636724064,1.0000000000000004,0.9581743730169214,0.8940049872441684,0.8238414934866949,0.7650461788793486,0.7026583515074227,0.6323260145427758,0.5623070505201815,0.50476472610565,0.44096780218033693,0.37062684322889394,0.3023992000401461,0.24794667818042315,0.17998639239991787,0.13902739219559734,0.12203665093147498,0.09926977117069447,0.09062308773017369,0.09362482620366919,0.1168071022718955,0.14652591147925476,0.18164518393732143,0.21201408525841803,0.22962070121619726,0.22822157485182926,0.19605162176170188,0.17429085114869647,0.1504013193102156,0.11121556651645648,0.09811556912289632,0.10072687098846123,0.1137740570572614,0.10721313354354844,0.11785910283979462,0.13169144277607225,0.13945615547317436,0.15326437539368465,0.13917080612743904,0.14219550219692767,0.15661542921416238,0.15724429962649156,0.15726149911252252,0.16296558981212694,0.18542162943217955,0.20518205775086962,0.24845065476380812,0.2904393843992219,0.32571890377557366,0.36088644308161744,0.39239896865619484,0.42581955434921426,0.4337587378585184,0.4226231187548879,0.4102324610505872,0.3807541354235511,0.3412684445698111,0.28921046452433297,0.245489688496622,0.202316368533773,0.16541256983993247,0.1392017455204999,0.1254009409690311,0.10320797940729953,0.09127561171657383,0.07392060861182115,0.06070460609997408,0.07616012337810707,0.08977354543553151,0.11207007107902767,0.16265206079099492,0.22542722834818107,0.28864815169247793,0.346655295049505,0.41673559956702233,0.4867696860779489,0.5435359589458097,0.608082357149228,0.6784353951720252,0.7487930848341882,0.8144856553485944,0.870279507113918,0.9274007209496804,0.9347391157083176,0.8851925384586088,0.8172811512464819,0.7628805462937827,0.6943209103357364,0.6239901977832742,0.5603757929275428,0.5027200056689041,0.4326225447117764,0.36407080484650667,0.30969815975162795,0.24128637961897637,0.17112448806703062,0.1124997171486477,0.055885936269062686,0.03812090636359278,0.018530870165784474,0.0,0.014291850411694451,0.041713141751388516,0.06762375552990463,0.09369213478632954,0.13143333105848098,0.14497687417635108,0.15410773329572836,0.12660399917508425,0.08916021548154651,0.05404209476685162,0.03901752416438242,0.038678967760465977,0.04138388368420909,0.057069187835394164,0.05845289062869208,0.06387071716525217,0.07769345769672453,0.07819976618605295,0.07943498910500502,0.09517289150183261,0.10786571130557698,0.11762218553769577,0.1177552792784784,0.12577814631703665,0.13765382426400352,0.15549081535981424,0.18292906877943116,0.2208273777991927,0.2563903048292886,0.3024700229844117,0.3409752882119985,0.3761658190539361,0.4113490037638803,0.44498940093996,0.4719918098435154,0.48857774611732685,0.461834485084879,0.43441375656158865,0.4014879706823957,0.3674609819612491,0.32902801810161364,0.2871092056300779,0.24960896225492313,0.218901931950088,0.18411364265088537,0.14593642179523636,0.12615789325424487,0.08776578178697347,0.07649616003071014,0.06053412069715325,0.059590811989041814,0.07574686509973061,0.10729529605763721,0.15983137975112394,0.22258169536174277,0.278691783267929,0.3484606847653531,0.4151816137883473,0.47024566236623455,0.5397975395027612,0.6101622262911519,0.6791181268091253,0.7337331953646502,0.8011963099733799,0.8539187093087222,0.864584387762847,0.8153693834919049,0.7452359031306508,0.6754116013907576,0.6190380735627103,0.5538885504005622,0.4835400718258023,0.41598525234134964,0.36129544646968936,0.29220145375658957,0.22191058142169684,0.16004206009914412,0.10072211524274222,0.03703461287054344,0.0345354077707829,0.03881950599620421,0.05152816964473006,0.07065948169918368,0.06519215767544839,0.09676363478531069,0.1299891713447896,0.1575315674640656,0.18935674047540285,0.19397362775321447,0.17289475391761489,0.14112552837215198,0.1170757086812233,0.11226930306937088,0.1324360849624715,0.13747306925875646,0.13748324141996093,0.13748324141996093,0.13748324141996093,0.13852674313663282,0.16024387874661183,0.19089564156314243,0.18814713853271448,0.18696985912773867,0.1953048715600234,0.17972769034410963,0.17716320178122702,0.18858249145840933,0.21563894314334497,0.25464738172643875,0.29323207200036805,0.33464440135570417,0.37909507337030135,MI
0.1624855520738402,0.16429935059117762,0.20331299961771476,0.2701880665419183,0.3532816780172321,0.41201348478305233,0.4331593667433107,0.43316228713755534,0.4166318499882986,0.3593464515796678,0.2947838171683492,0.21630230370790304,0.165308085165766,0.09230015996907026,0.04027130435706905,0.0055574796327007014,0.0004514311888952349,0.03006764457480493,0.11283307885280269,0.1784681074233534,0.23819497218402175,0.30367752584753793,0.3496100012286987,0.3843429161496945,0.4475290115579251,0.5183335102904043,0.5909011841727465,0.6498395533949979,0.6261025319060631,0.5619354675699921,0.4898487258653357,0.42341653814007296,0.3751785648009638,0.3394737830470427,0.2642404805730032,0.1771941335473013,0.09016794671267281,0.018928610243423183,0.0016624605777524337,0.0,0.0027219208741340317,0.025632509041809026,0.052560404214848866,0.10229523094607229,0.17115378804285797,0.22317388120805637,0.27763336386364523,0.349923627769241,0.3999701195068748,0.4518262205910841,0.4854752625553487,0.4963069507661513,0.49670864469419085,0.4678358553639703,0.41783348802021747,0.3597030187158725,0.30175797483422295,0.26480697391573704,0.3203535566833202,0.40706370482983223,0.4793151342126216,0.5230612136716846,0.5638951874768074,0.5713159763487758,0.5935609443050214,0.6075723160544952,0.6289114840015642,0.6647763619727685,0.6859805824846696,0.7073312646687815,0.7346698912646761,0.7592963290120456,0.8004030188552398,0.8374263947887237,0.8636839715854054,0.9070018027091504,0.950197477664585,0.9767727836853903,0.9822944083581802,0.9395983698490684,0.88580963483945,0.8491287591553625,0.7928564717298481,0.7349732423350219,0.6946865135478872,0.6534503890508252,0.6099056766807212,0.5665714397948771,0.5422215216761441,0.5416241902543786,0.5416241902543786,0.5421162295413011,0.5591772531006121,0.544616560817548,0.5416270695631913,0.543954067372217,0.5595459116767594,0.5429823087520576,0.5627050019602122,0.5686940264972855,0.563142148343116,0.5431584134874305,0.5620673077856311,0.5838401738634595,0.6257623512717871,0.6582595985851216,0.68780447433338,0.7246398930027413,0.7193137827047145,0.6823251729122526,0.6480083468643154,0.606380181233614,0.5742096461689408,0.5436652765278471,0.5279698790880558,0.5229895419464259,0.5170524896674125,0.49562770128423717,0.4874930516177831,0.49081423491416,0.5358326483665512,0.5859046590090311,0.6519017550473722,0.6849731568266475,0.6313753561050706,0.5624606996049946,0.5036973102326558,0.4381791935090926,0.4077372691223835,0.42028773532006225,0.4912730152733453,0.530007590844733,0.5720702451775037,0.5952971763399062,0.6064910783395097,0.6239835487582952,0.6450718876461612,0.658556388411299,0.695170792088192,0.7050055963002131,0.7311646791915609,0.7576983498491558,0.784307563237975,0.8155208486985681,0.8512511689862206,0.8948014036952565,0.9383053556271741,0.9749919428584799,0.9999999999999996,0.9805701480384053,0.9375444591897257,0.8927172493248379,0.8208392541577871,0.7537042418630837,0.7176658138680803,0.6622402595211176,0.6230001152869185,0.5922674940681625,0.5664143252158005,0.543960955130554,0.5416252911665711,0.5416241902543786,0.5395638541242627,0.5226312635232371,0.5405912922212068,0.5416241902543786,0.5416268155065311,0.546007571779453,0.5674544028187056,0.5687055437325381,0.5685373156156088,0.5523920019862678,0.5554078481899798,0.5974348073169087,0.6389280513490836,0.6713422584250464,0.702391546824733,0.6934923889496729,0.6527689848800518,0.6228380501649382,0.5820238510227731,0.5272226052101776,0.5145866664731513,0.514542836776219,0.514542836776219,0.5126951856414768,0.48972721392951124,0.46787584978725727,0.46905800597453196,0.5159368706248721,0.578049422195122,0.649875923567778,0.6817570964856485,0.6300750187935464,0.5554554978108741,0.4905389820764481,0.43080434261749145,0.4089194406105725,0.4403426484155193,0.49166734204482543,0.5406922086493879,0.5744291149587375,0.6038243199815772,0.6412174762106786,0.649948827847346,0.6557342672888873,0.6782599190035019,0.7010046106084684,0.7179068627117293,0.7577726626831764,0.7805282355042498,0.8020517516897931,0.8400176239504487,0.8709992982815913,0.918861276295535,0.9491520196996412,0.9883799857477036,0.9950914772360355,0.9644291921438319,0.9094370436878907,0.8552613671745637,0.8101617044765308,0.754971577033166,0.7107893680831876,0.6631256182224186,0.603658146272775,0.5806710168136422,0.5687655918994134,0.5680427154780143,0.5486624782676732,0.5358625525284633,0.5153828940405618,0.5156046285015745,0.5362793680564084,0.5416193349493201,0.5416241902543786,0.5416241902543786,0.5416241902543786,0.5416241902543786,0.5416241902543786,0.5416806277565347,0.5539377971094619,0.591708193008277,0.6337702235017999,0.6590979848212819,0.6959974037385241,0.6947404926953245,0.6542444782412242,0.6117370542716034,0.5810125466286942,0.5520740640142958,0.5320764415252843,0.5149208017490419,0.5143944454797551,0.4996410712097208,MI
0.0457176739413514,0.04589798244787624,0.033808942139534004,0.03310665090902898,0.04909330514168553,0.08087193100756807,0.12001489196543291,0.16144065487601056,0.21284194806026946,0.26512884912519263,0.3158160366986853,0.3582900904135924,0.4096048383765232,0.46181567566378634,0.5071307476244264,0.5369972315351172,0.5815476290945134,0.6249439835755468,0.6620391149967726,0.7120924098081072,0.7545539325042467,0.8058518321731296,0.8580656846390617,0.9041992312759448,0.9370713631131156,0.9245087276198181,0.8844396209941032,0.8335982617639313,0.7813106894610913,0.7290766702343534,0.6825948072340466,0.6367456577225101,0.5845478710217828,0.532259208971722,0.4799716965798986,0.4291606714911085,0.386582140311178,0.33549576450741325,0.2832082930641566,0.23219823817608143,0.1896681217404521,0.1387326585603268,0.08645158655226437,0.037012843259250916,0.008010801252307909,0.020311018601119724,0.029958714039854284,0.05705654611580746,0.08187728272420891,0.1024372272290126,0.1107570518277714,0.09670780885901831,0.07862551079875324,0.053837902210562616,0.04582497926179174,0.03903061179045064,0.04853853298880528,0.04971959073554455,0.054732725078632694,0.0553702517000525,0.05892318529922247,0.06206646090610635,0.06207431151320497,0.06207536416264858,0.06346193218964813,0.06831437331715251,0.062201381525479826,0.06236315402193493,0.07101545022115086,0.08408868452838325,0.10263540258783044,0.13314811525699,0.15948382486704737,0.18561423079913864,0.2090747611580892,0.22661794107982347,0.23532721855971195,0.23090081383418148,0.21105187701147843,0.18808904272824956,0.16410558860830404,0.14149227333950876,0.11052458045290203,0.0866914391599134,0.06635575578986663,0.05176836263651263,0.03853056641928809,0.03777948219845384,0.05279892555941723,0.08652574045398698,0.1258590081636468,0.16775211229167297,0.2183834019200539,0.2706701124889368,0.32270245807708786,0.3668826834555077,0.41516687112554074,0.46741202012491545,0.5151783583843206,0.5598170845986026,0.6119070873174928,0.6641957493675541,0.7163401291169764,0.7610501957252453,0.8087041250550944,0.860958567806863,0.9131205481536502,0.9579396171104757,0.9929839917929248,0.9880074694473504,0.9522653334394935,0.9024078090747412,0.8501238858562448,0.7995244090166427,0.7568943395605205,0.7056473148348168,0.6533589727530895,0.6010703107030286,0.5488145563487343,0.5010894688191878,0.45643922299493456,0.4043074922637193,0.3520188302136593,0.2997352983000052,0.2498153400790062,0.20697213190730235,0.15525601177435044,0.10296764534720593,0.05147079966390122,0.010644368722502406,0.0006208386870989457,0.012919556263851106,0.03060911631788077,0.05540505335120871,0.07625949708267954,0.09440758797194038,0.09470667780500719,0.07647580525047637,0.058133208142475246,0.03872002495363902,0.029276546108382373,0.03561039181636194,0.037288557327489924,0.0372906844518921,0.03818140915261026,0.04779158700224784,0.04967949935588267,0.04968195426824362,0.04850633704110874,0.03878429894842572,0.04307837191531738,0.04957626651802949,0.04968248175227097,0.050544470554757526,0.061352382139290285,0.07942561941410808,0.10059481122591585,0.12792800060632414,0.15860677471224882,0.18461205404497383,0.20475875327744708,0.22038244145168617,0.22275013706926883,0.21230615253045526,0.19441248179084747,0.17021204045621374,0.14211018137812026,0.11184901951386639,0.08837650326555391,0.07007889590176619,0.0508193748367467,0.0331776576223779,0.025006336328130763,0.02957726065895705,0.056862106264147005,0.09752866633905466,0.14464301163964866,0.18843929468391396,0.23084923909486887,0.2816327832933885,0.32937486123296456,0.3740351010791936,0.426126831725131,0.4783968962139258,0.5264979238366596,0.5708247023877067,0.622889650164439,0.6751783122145003,0.726914309376065,0.7698084716040889,0.8196579137420255,0.8719398183199223,0.9226659510866111,0.9649648983948742,1.0,0.9883565236830969,0.9436523996570916,0.8914284062864861,0.8402831771089181,0.7977858577581376,0.746952625710156,0.6946650719562046,0.6423764099061438,0.5900877478560824,0.5379450433623081,0.4926501513736339,0.445573212257671,0.3933249294167731,0.3410362673667122,0.2887476053166518,0.23645894326659134,0.18417028121653,0.13189747602941182,0.08324733190378808,0.039431661570610066,0.0,0.009732511446756353,0.01842346737340872,0.042449149025403754,0.07302264750337595,0.09397261792063771,0.11136645877616314,0.12154647854270362,0.10155302261315313,0.08153286680486227,0.06373682930936053,0.05194348233410162,0.04409456120602173,0.04955715122422921,0.04968248175227097,0.04968248175227097,0.04968248175227097,0.04968248175227097,0.04968248175227097,0.04968248175227097,0.04973066491037037,0.055132137146970184,0.0619445948062487,0.06389027067972441,0.08166747601877367,0.10323554030877835,0.12920887712880313,0.1552598890550998,0.17854866663458058,0.20576891513243423,0.22117655948318182,0.22296925171085658,0.21447142334300384,0.19614905088505052,0.16781640818054688,0.14263943277996916,0.12114416184730459,0.09521701497725088,0.07034667203468814,0.056058543913939385,MI
0.6923180149369665,0.7301199730114005,0.7529931706259143,0.774295099879649,0.7873585231988427,0.8096194369380942,0.8171095827528214,0.83733315342789,0.8471169993142098,0.865607143488182,0.8859021185652969,0.8774300109804978,0.8391039837086343,0.8097244071455787,0.775423778709091,0.7234583214093044,0.6796116096730005,0.6319947869239186,0.5745432409377953,0.531237120159707,0.46328372948315266,0.40409207374582934,0.3462156146059092,0.28892081710000683,0.2666336265298832,0.33646983921521034,0.39021464421877905,0.4544688810211195,0.49149181379975815,0.49745542175197244,0.4964496642377503,0.48192286199371814,0.41738511139043766,0.3308684488523097,0.24413142318679837,0.15739439752128837,0.07109372019627402,0.012490290301452323,0.00046540782414794535,0.0,0.006415341807815,0.02866415032706149,0.061356366831409215,0.11610724563649288,0.18251187718309803,0.22991793573227826,0.2935880937940749,0.3588613966605019,0.41067830699343233,0.4592623801547884,0.4877162023375252,0.5103071032267747,0.5143108915204904,0.5340943346554887,0.5407582794158383,0.5397218470632685,0.5217247656648771,0.5316625700994475,0.5142713906205927,0.5137266404906642,0.5126200173559123,0.49173833965470237,0.49720890831126585,0.5135071485910281,0.5027173889270191,0.4952171871613462,0.5343123106539238,0.57764727536326,0.620862807240953,0.6547829448766773,0.6905123935716091,0.6720662642134316,0.6066166118888612,0.5600250795992894,0.5202501249720299,0.4923540946957896,0.4865075864903394,0.4695910115225246,0.47494566660779824,0.5321057400259948,0.5843549972987843,0.5859384494420823,0.5151021015822783,0.4291843975589602,0.36215982933978186,0.28820158216538694,0.2476423331474904,0.2690380070088323,0.3187266575106156,0.3924727496108744,0.45750704248787244,0.5212832608475848,0.5935137812418478,0.6513200078727897,0.7069136099269198,0.748468112104753,0.7778818626174502,0.805498436356709,0.8260761529000691,0.8464286707837143,0.867986412424675,0.8947933891347377,0.9236338965476394,0.9474541972429256,0.9705332688215691,0.9924305001207117,1.0,0.9807794518580133,0.9480765412627274,0.9049956162472768,0.8672707059848701,0.8317432942301393,0.788489173800901,0.7538368243822902,0.7317631838348433,0.7497769228018472,0.7620427021625247,0.7830043700833951,0.7845404551092701,0.802335907757417,0.811151098449419,0.8164094959088999,0.8371437738109444,0.8381952206085899,0.8381952206085899,0.8381942917311163,0.8347983122864076,0.815233577729269,0.8290891757527952,0.8152381573112324,0.8366168734847612,0.8397851525152058,0.8685673050939604,0.9095561996000265,0.9419635421322594,0.9838919611422972,0.9887877409840984,0.9479905573164977,0.8984674661307812,0.834890941166651,0.7937342493388995,0.7730786183539076,0.7521506235521294,0.7312174685250339,0.7416651745553171,0.7844617636746207,0.8388300675381561,0.8443511956913303,0.7661329064794353,0.6794324260775078,0.6025625659529892,0.5327290063256864,0.4670164933534675,0.4628910054720503,0.497773983209024,0.5503656556978216,0.6154263532776394,0.692552642496195,0.7606425298222064,0.8260710780678773,0.8793886986803416,0.9150323966843823,0.9193588683789882,0.9297743354003192,0.9461804947494947,0.9463514139812315,0.9467612541745742,0.9643467844005391,0.9658461105261127,0.9468556911301844,0.9462540575568656,0.9319108689748106,0.8902192916772789,0.8465384502399775,0.7921914081577883,0.7430129936996188,0.6899154386390594,0.6514732645206855,0.6055580840902568,0.5719302370405259,0.5857363203458874,0.5692147433465635,0.5676100022554493,0.5503595509096089,0.5400525531862908,0.515492194961154,0.48784568726049926,0.47050467104041616,0.4592129178106674,0.4396267893534267,0.41181455851506854,0.3909389028860284,0.37859326065721177,0.3779826697152835,0.35904195892323365,0.35151001466766996,0.3450299718263681,0.31727724757682907,0.29792087850767546,0.30421025883247665,0.33243067332435583,0.37027848862351576,0.4029046699836787,0.44450652664754475,0.4429175062284063,0.3875279056772456,0.3296623716485412,0.27815337861288425,0.235490193600016,0.21650450050578707,0.20211769587712514,0.19267809832031402,0.22054063028931603,0.2717713161359061,0.32696440866061227,0.3300695268356071,0.27237205481464466,0.18914849001402656,0.11347425642991515,0.047756127386366476,0.0048781850419183925,0.014716923834458662,0.07187548679485323,0.13611516137830693,0.17587015484145674,0.24225083088922172,0.3025415248442753,0.36041798398419544,0.4179805863758119,0.46462388174807145,0.49684690870800274,0.5338965384639476,0.5465165134576493,0.5689932971994711,0.5921089918548175,0.6174203002911032,0.6595339653849424,0.6897425590689297,0.7104625904598967,0.738489956599139,0.7568372774276568,0.7479225325003487,0.719353490481093,0.6892228448095699,0.6460202451032844,0.5910251886870235,0.5464909165524618,0.4841071787591966,0.4334675436729931,0.40507192578110285,0.3817965916684294,0.37874911747471085,0.3890838631931768,0.38833280448782137,0.4051997947018773,MI
0.16586583970511892,0.16748797159258677,0.2060963096417816,0.2729229867326395,0.3602079045599713,0.44468256594917976,0.5038007327667384,0.5212173518985073,0.4994857976571949,0.49747532099869884,0.4725164994122326,0.4013098559314199,0.3423884955526,0.2687148076136583,0.20010073092832714,0.14514921899645472,0.07159258958436743,0.02632439935204456,0.0015860388316437657,0.0027225746323944477,0.05527502452001043,0.13935997170747072,0.20009456601490339,0.26317404733246574,0.3262761532173486,0.3703493443621704,0.3738293252752345,0.4323141596825315,0.4901521582534616,0.4976234795667023,0.4923410052087305,0.4695368333719636,0.41977454195648134,0.3324542197042448,0.2444165045500175,0.15637878939578975,0.06885317413374104,0.01163002864568563,0.0004164923580165514,0.0,0.006851624044393212,0.02938819331128295,0.06272421511403792,0.11810026060363388,0.1857312372590436,0.23428789265291483,0.29770525216702337,0.3651343500093005,0.41672857424734344,0.44313757055108427,0.47001051338787336,0.4970069247371387,0.5257554459278553,0.5775768292277257,0.5806644976740984,0.5986685237141329,0.6296826078950741,0.5823370563564692,0.5166301527549408,0.4794626022536792,0.43656634498618585,0.42032595179891397,0.4207290206987673,0.41471056377579485,0.4146936136238506,0.41879080041431616,0.4597589165259186,0.5184251815469785,0.577242747727428,0.6389323728493683,0.7134279794783569,0.7847331660765708,0.8709273811412763,0.9212438395249998,0.8697158589069471,0.781966986981868,0.6962536061562292,0.6315284804775545,0.5711440678489104,0.5395947384857105,0.523761823465978,0.4840254160320936,0.47519541504797624,0.519002731127332,0.5758320113091799,0.601768330441725,0.6534925949791615,0.6755018264279076,0.6925324317999153,0.714527276701824,0.7360051148250846,0.7495009086325974,0.7725191658251513,0.7922676219753808,0.828470784690992,0.8462574331141162,0.8780435662485151,0.9103953895864989,0.9029991025176449,0.8613741085121052,0.8105994098359681,0.7817420906773314,0.7316594194316575,0.7103839082200261,0.6722699673110601,0.6425425546380867,0.6144245427580004,0.6082355641491071,0.6082226045500323,0.6082208034713319,0.6043807878902023,0.5824722663096478,0.5805759461422677,0.5805752925249972,0.5805752925249972,0.5805760042415806,0.5825390651756686,0.6032872411834282,0.5786595466387712,0.5571863461907314,0.5791467150333083,0.5806009303412183,0.5905423133195096,0.6321969726396097,0.6359251981937057,0.6474957372742307,0.639965779119136,0.5850706140094952,0.5404384387561252,0.5029246498537199,0.4513362172066526,0.41882025425606306,0.43720405629392145,0.42918911658318715,0.41486841886583514,0.4153016931460596,0.44150740506727937,0.4987393785419276,0.5658100404004869,0.6340756281680231,0.7183020107821432,0.7834814649705444,0.8622217939387853,0.8474541341779518,0.7622541578719333,0.6892261759843872,0.613840339897552,0.5443694623987958,0.4895252573123714,0.4701823913402836,0.454080465532956,0.3956728014771387,0.3643849565099999,0.4009808449928971,0.4617032756751729,0.5233295087575427,0.5605327502116784,0.6118067437464414,0.6262623032425698,0.6152835081811534,0.6512953274669164,0.6662621901492289,0.6891863385753365,0.7033662432254331,0.7324745384082347,0.7467294769721939,0.7722372020402841,0.8044227064321219,0.8277343674166633,0.8288250595938202,0.8043904634086299,0.7544052800078149,0.7251235711374755,0.6750743871333236,0.6428386808396858,0.610662539262854,0.5957789953822137,0.5794817201755982,0.5571224326124953,0.552930241531556,0.552927980499963,0.552927980499963,0.552927980499963,0.552927980499963,0.552927980499963,0.552927980499963,0.552927980499963,0.5533016315655268,0.569357700047465,0.5569523099505189,0.5647842685215276,0.5862907660613659,0.6225593123603255,0.6466415041003795,0.6881168911767728,0.6912421080391788,0.7039529745330673,0.7033299251550793,0.6475531318850787,0.6081241556572334,0.5607394873072828,0.517122008706171,0.49807329490012586,0.4976333564498936,0.4963574429594595,0.47490782222297634,0.49533060679029406,0.5599304165558174,0.6115764021329695,0.6695280536139214,0.7435650223396979,0.8086510574678969,0.8948212171941612,0.9764769143948109,0.9999999999999996,0.9269215263399091,0.8610684891858535,0.7771950905384766,0.6924676818383282,0.6310596495778769,0.5857547352435986,0.5575076777062979,0.5282536797668773,0.47993112009958727,0.478229150557516,0.5384673676325744,0.5801101300567493,0.6202167018612186,0.682749526462024,0.7047931607411297,0.7257174240985154,0.7461805740006437,0.7652792781362936,0.7778314199304464,0.8016097295765392,0.8307023613042657,0.8565994517245348,0.8756256611935069,0.907836483807309,0.9384494967046613,0.9392791112495993,0.9137217905876356,0.8628198773647449,0.8162760159366216,0.7600914696003858,0.7361314000410073,0.6991547168727004,0.6847586185536518,0.6418068859438351,0.6191489003170703,0.6082717835604181,0.6082226045500323,0.6082226045500323,0.6082226045500323,0.6082226045500323,MI
