0,1,2,3,4,5,6,7,8,9,10,11,12,13,14,15,16,17,18,19,20,21,22,23,24,25,26,27,28,29,30,31,32,33,34,35,36,37,38,39,40,41,42,43,44,45,46,47,48,49,50,51,52,53,54,55,56,57,58,59,60,61,62,63,64,65,66,67,68,69,70,71,72,73,74,75,76,77,78,79,80,81,82,83,84,85,86,87,88,89,90,91,92,93,94,95,96,97,98,99,100,101,102,103,104,105,106,107,108,109,110,111,112,113,114,115,116,117,118,119,120,121,122,123,124,125,126,127,128,129,130,131,132,133,134,135,136,137,138,139,140,141,142,143,144,145,146,147,148,149,150,151,152,153,154,155,156,157,158,159,160,161,162,163,164,165,166,167,168,169,170,171,172,173,174,175,176,177,178,179,180,181,182,183,184,185,186,187,188,189,190,191,192,193,194,195,196,197,198,199,200,201,202,203,204,205,206,207,208,209,210,211,212,213,214,215,216,217,218,219,220,221,222,223,224,225,226,227,228,229,230,231,232,233,234,235,236,237,238,239,240,241,242,243,244,245,246,247,248,249,250,251,252,253,254,Target
0.6760207866440098,0.6211360258713472,0.5599120739809931,0.49867957888239456,0.43745037607986914,0.3786266156426086,0.3312593493258431,0.27115663476316376,0.20992824353434036,0.1512488538714214,0.10389816768504456,0.06069433035219429,0.09986755100918288,0.13043606525502005,0.13334398280645798,0.13859583269418518,0.15138339005933554,0.16735845278228334,0.18394629620283132,0.17993767616950018,0.17884739793978266,0.16847235962550444,0.17618691873166048,0.16896067617103805,0.1346809834646323,0.09971205897132673,0.09089275573114142,0.11041809793805513,0.12942734160055736,0.12486515715750501,0.11601180262267263,0.11592528677777603,0.11595061359414371,0.12284664941790258,0.13457368102839462,0.14879932594889844,0.15550499230300874,0.16766223184001383,0.16140345427549052,0.1505597947942663,0.138558099885989,0.12212034057886534,0.09948536548871267,0.08436690214343256,0.07387964264050684,0.06402938722940554,0.07436732825094738,0.081249736466658,0.09192729141976441,0.09958848447299617,0.11349480872239948,0.11987814678872866,0.13943371578950403,0.17787494539603577,0.22669931693296608,0.2776552852235583,0.32554256865449727,0.3731761607969104,0.42407204629110185,0.47029603492444627,0.5188305589721294,0.5795720736881935,0.6400453040896039,0.6872902435668662,0.7249306304698795,0.7625712777508284,0.8130627660290988,0.8591920093282157,0.905388071140178,0.9544625821371024,0.9918940475454079,1.0,0.9560697906241336,0.9022442427970381,0.8509790598145801,0.7898923488546399,0.7291039092415748,0.6801095190967303,0.6235899219711842,0.562369565423078,0.5011370703244786,0.4401138698853573,0.38940407217451734,0.33482284190306544,0.2736143209781803,0.21238182587958176,0.15114965215632203,0.09229295145426608,0.08893954675459126,0.11379806744260046,0.11617840218425446,0.1278724668214104,0.13803748386491632,0.15029565930317146,0.15074123401757777,0.15388603743057372,0.16737814548257868,0.16777193802052226,0.15312971589260327,0.11930128517267446,0.08681574795892777,0.09734369668470766,0.11565068533163458,0.12871284097491387,0.12620349663742036,0.12899557721501065,0.12560059994925332,0.11606946810813934,0.12192523908479025,0.13305056016298789,0.13564788639987668,0.14950990588784174,0.15707673380599507,0.16192343082717287,0.15092917403543504,0.14452417334679657,0.12489902589545654,0.1136311421857421,0.09547466366821356,0.07905894780900358,0.05145159377250508,0.02937402885911844,0.02404638045366081,0.0,0.0015655236557958752,0.01135981536820907,0.011482699058218415,0.013092642647914321,0.03084828242466342,0.06359505091993967,0.11851067169965601,0.16466772548600916,0.21016949632266302,0.2556191964554353,0.3006126944796632,0.34363373199271807,0.39849556329022207,0.4468179164702355,0.5034254159481377,0.551288690305082,0.5990093774766878,0.6499455169572337,0.6991300229597108,0.7460601362024217,0.7956701002943474,0.8256837566763657,0.8050058070770683,0.7506506189601105,0.7007266134833268,0.6452906616689948,0.5841706314728028,0.5321035506568843,0.47897366016979737,0.41778715224712215,0.35655465714852363,0.29537717199399793,0.241199666731565,0.19010930007766635,0.12903192727951884,0.06830934230705843,0.03861909041578793,0.08310364706277218,0.09750974052853367,0.08805915686727239,0.10896024377840385,0.11986374525113197,0.13504149916127028,0.14938867279842816,0.1431134563470562,0.14699381832446612,0.15048320623259048,0.13908750396777858,0.11577895055543408,0.08568927989988762,0.07680158705419426,0.0920564556573984,0.11388011030428435,0.11592384488401164,0.11559524044961922,0.10408828014060933,0.09853594301145074,0.09851805572967942,0.09851805572967942,0.09851969182231057,0.10191362028106354,0.1152665665283581,0.11693143056238942,0.1307271741016467,0.13326575017791864,0.12579275119496236,0.11560751526983948,0.10226201494975218,0.08197659499339371,0.06408720987599148,0.049027434616858656,0.045186999364486,0.025667166625061633,0.011716209084437157,0.011505198341582812,0.018034360091176094,0.02866642002573938,0.029596808921114715,0.04735004510075891,0.07101645583903515,0.10954877786927009,0.15563460878314617,0.20521197791612744,0.2516304899462276,0.297944087549046,0.34374932173759065,0.39108825179074236,0.44826540127288217,0.49577970531276216,0.5440229626595232,0.5951448022333352,0.6436210379673906,0.6906432852389148,0.7411367625204197,0.791278102564394,0.8382231772514332,0.8777326992168315,0.8590932202158399,0.8066705363669069,0.7591466715727417,0.7006021540616687,0.6394478110480231,0.5864762626121696,0.5342275496686968,0.47769365022964605,0.4425138884992261,0.3857068926389857,0.3356049652354969,0.2803521680374961,0.21913992734531318,0.15823077014883413,0.10858017744508874,0.07680138570637585,0.1003670443799014,0.12304429143181528,0.1332187480076148,0.13670239469591783,0.15527616745821327,0.1677933610645317,0.1735330352346729,0.18520403936389274,0.18553628256661758,0.17825951442966437,0.14139226127515236,0.1064837031324366,0.10497918668288309,0.13006903256628366,0.148935308304468,0.1636420570420749,0.15508367270439694,0.1507488439784903,MI
0.13456918219262093,0.14249256324984216,0.14268147569031697,0.15740738906624507,0.1447133456294427,0.10908748353203901,0.0943208093746235,0.09345005765762116,0.07525142503195159,0.0700994509186299,0.07008973872271129,0.0656791383724471,0.04683261593034871,0.04595644044153513,0.04595617828350429,0.044745757497538285,0.026605548386053002,0.04925285350084385,0.08039377197458153,0.11603009804050224,0.16331085090791486,0.2188312755196664,0.27194135142400455,0.3256022988397458,0.3922919625030348,0.4471316362580051,0.5148012359426888,0.576016430152472,0.6368388283531221,0.7088183938734689,0.7630261505647082,0.831526103862636,0.8995283529570601,0.9490505355871157,0.983118010187618,0.962398222280787,0.9117001625983274,0.8406328044956988,0.7762148377972702,0.7185942707914625,0.6457799433917497,0.5731725181685192,0.5177979772693639,0.4509492995067843,0.38105858423768435,0.34338185657751197,0.2834951052270096,0.23034244257438097,0.15842334724470053,0.08543872721849821,0.017561875087893863,0.022407860307217753,0.06210321819886255,0.07007642532496972,0.06907233464293361,0.053299792461637185,0.0682009825657679,0.07013304284272426,0.07954762691361905,0.09716960075402392,0.11673485155585128,0.12849266099456047,0.1526227366390147,0.17693097052374185,0.190381457479452,0.1752098553606034,0.13931453034611785,0.0980433323414287,0.07143700830711364,0.09354116381815247,0.11721068718135186,0.11837806816843699,0.11837831224660356,0.11837831224660356,0.11837831224660356,0.11837831224660356,0.11837831224660356,0.11837831224660356,0.11837831224660356,0.11837831224660356,0.11837762521176431,0.1159249132006237,0.09573183850380751,0.10020543911426971,0.11534880869168296,0.0954252488682319,0.09423768831158075,0.09423764311192073,0.09366158380264045,0.07572967520168605,0.07737919702400031,0.09390229533053862,0.09423768831158075,0.09423768831158075,0.09426191654265459,0.1025512133497104,0.12101969046180194,0.15740249295102338,0.16941059320346064,0.18892848190449207,0.1907892477369133,0.18560858779484857,0.1672289194297889,0.1536093141162711,0.13691742788121797,0.11884415168462725,0.10472040259362458,0.09406543625818342,0.08022185862697828,0.08134580798086821,0.09232539654232319,0.07314090551119978,0.06320447835561716,0.046417435839897436,0.04682177497649587,0.07035132627472995,0.09819646857173225,0.136240946532876,0.19186328198406777,0.24067044304610175,0.2974574967997894,0.35225664707446036,0.42346752445388347,0.4766200967071912,0.5365068480576944,0.5741835757178659,0.64407729224442,0.7158652509006913,0.7685006512726549,0.8387560567759058,0.8965044598837331,0.9589014075668851,0.9941736154613245,1.0,0.9571960842106781,0.9046537149795064,0.8326631622853391,0.7638527118252707,0.7099025257238116,0.6378277378602126,0.5648467382804556,0.4966527260188949,0.44218739873787793,0.3700088158516648,0.29701892936577323,0.22421039421198063,0.1641804116188217,0.10215178353689369,0.040503166024499215,0.055889516955808016,0.08838734920959856,0.0942253666504067,0.09429643203102511,0.10575371144991541,0.11821835558796678,0.11837831224660356,0.11837831224660356,0.11838048183030558,0.12325591048027595,0.15432865468478774,0.16655018228009855,0.16444795261118728,0.13427233074018474,0.08595728682051895,0.04812285895105228,0.059955478411878094,0.07577560776490255,0.09371446533889527,0.09423766119178456,0.09423768831158075,0.09423768831158075,0.09423768831158075,0.09423768831158075,0.09423768831158075,0.09423768831158075,0.09423768831158075,0.09423768831158075,0.0942322361604826,0.09028396445909781,0.07105108613233035,0.07009706437655794,0.07009706437655794,0.07009706437655794,0.07009682029839137,0.06893926296881592,0.050334367219670106,0.055511057058792446,0.06985580795875768,0.07009706437655794,0.07014356066464611,0.08047793032183659,0.09773141162932042,0.11692966238946134,0.11837796872918416,0.11837786928993088,0.11663881394006159,0.09704475389284628,0.0793229506534856,0.0630829083699549,0.04639095372825208,0.04395253445371905,0.024294960834977175,0.01970687064075438,0.0,0.010948419321171965,0.021810726916962953,0.03550178824305705,0.04588905339107452,0.05163410155999193,0.07067294592180451,0.09835150509110413,0.1464845396748764,0.1952140505187554,0.2576718070065338,0.3103437850128774,0.3792524070321024,0.4320773156160458,0.5026409218189913,0.5756296963932357,0.6466003190182086,0.6955030517879175,0.7309675948876837,0.7951635274885529,0.8597407988508845,0.9146686122698746,0.9557886327951097,0.9583199377918916,0.9213565352184743,0.8579336073180706,0.8032126259128782,0.7309821455153598,0.6581821682309537,0.5983502895396651,0.536102160093213,0.46316322350681194,0.3901884689362163,0.3235355521709202,0.2677823719410073,0.1953447715747343,0.12417323562329718,0.07096954196462635,0.03812129543211418,0.0777336954880008,0.09410401297572468,0.09423768831158075,0.09424007485365271,0.0993920489669744,0.11759068159264396,0.11846143330964631,0.13216761486877804,0.14254080827979454,0.15783409709482044,0.19357825475196488,0.214442388472877,0.2069910449577561,MI
0.13456918219262093,0.14249256324984216,0.14268147569031697,0.15740738906624507,0.1447133456294427,0.10908748353203901,0.0943208093746235,0.09345005765762116,0.07525142503195159,0.0700994509186299,0.07008973872271129,0.0656791383724471,0.04683261593034871,0.04595644044153513,0.04595617828350429,0.044745757497538285,0.026605548386053002,0.04925285350084385,0.08039377197458153,0.11603009804050224,0.16331085090791486,0.2188312755196664,0.27194135142400455,0.3256022988397458,0.3922919625030348,0.4471316362580051,0.5148012359426888,0.576016430152472,0.6368388283531221,0.7088183938734689,0.7630261505647082,0.831526103862636,0.8995283529570601,0.9490505355871157,0.983118010187618,0.962398222280787,0.9117001625983274,0.8406328044956988,0.7762148377972702,0.7185942707914625,0.6457799433917497,0.5731725181685192,0.5177979772693639,0.4509492995067843,0.38105858423768435,0.34338185657751197,0.2834951052270096,0.23034244257438097,0.15842334724470053,0.08543872721849821,0.017561875087893863,0.022407860307217753,0.06210321819886255,0.07007642532496972,0.06907233464293361,0.053299792461637185,0.0682009825657679,0.07013304284272426,0.07954762691361905,0.09716960075402392,0.11673485155585128,0.12849266099456047,0.1526227366390147,0.17693097052374185,0.190381457479452,0.1752098553606034,0.13931453034611785,0.0980433323414287,0.07143700830711364,0.09354116381815247,0.11721068718135186,0.11837806816843699,0.11837831224660356,0.11837831224660356,0.11837831224660356,0.11837831224660356,0.11837831224660356,0.11837831224660356,0.11837831224660356,0.11837831224660356,0.11837762521176431,0.1159249132006237,0.09573183850380751,0.10020543911426971,0.11534880869168296,0.0954252488682319,0.09423768831158075,0.09423764311192073,0.09366158380264045,0.07572967520168605,0.07737919702400031,0.09390229533053862,0.09423768831158075,0.09423768831158075,0.09426191654265459,0.1025512133497104,0.12101969046180194,0.15740249295102338,0.16941059320346064,0.18892848190449207,0.1907892477369133,0.18560858779484857,0.1672289194297889,0.1536093141162711,0.13691742788121797,0.11884415168462725,0.10472040259362458,0.09406543625818342,0.08022185862697828,0.08134580798086821,0.09232539654232319,0.07314090551119978,0.06320447835561716,0.046417435839897436,0.04682177497649587,0.07035132627472995,0.09819646857173225,0.136240946532876,0.19186328198406777,0.24067044304610175,0.2974574967997894,0.35225664707446036,0.42346752445388347,0.4766200967071912,0.5365068480576944,0.5741835757178659,0.64407729224442,0.7158652509006913,0.7685006512726549,0.8387560567759058,0.8965044598837331,0.9589014075668851,0.9941736154613245,1.0,0.9571960842106781,0.9046537149795064,0.8326631622853391,0.7638527118252707,0.7099025257238116,0.6378277378602126,0.5648467382804556,0.4966527260188949,0.44218739873787793,0.3700088158516648,0.29701892936577323,0.22421039421198063,0.1641804116188217,0.10215178353689369,0.040503166024499215,0.055889516955808016,0.08838734920959856,0.0942253666504067,0.09429643203102511,0.10575371144991541,0.11821835558796678,0.11837831224660356,0.11837831224660356,0.11838048183030558,0.12325591048027595,0.15432865468478774,0.16655018228009855,0.16444795261118728,0.13427233074018474,0.08595728682051895,0.04812285895105228,0.059955478411878094,0.07577560776490255,0.09371446533889527,0.09423766119178456,0.09423768831158075,0.09423768831158075,0.09423768831158075,0.09423768831158075,0.09423768831158075,0.09423768831158075,0.09423768831158075,0.09423768831158075,0.0942322361604826,0.09028396445909781,0.07105108613233035,0.07009706437655794,0.07009706437655794,0.07009706437655794,0.07009682029839137,0.06893926296881592,0.050334367219670106,0.055511057058792446,0.06985580795875768,0.07009706437655794,0.07014356066464611,0.08047793032183659,0.09773141162932042,0.11692966238946134,0.11837796872918416,0.11837786928993088,0.11663881394006159,0.09704475389284628,0.0793229506534856,0.0630829083699549,0.04639095372825208,0.04395253445371905,0.024294960834977175,0.01970687064075438,0.0,0.010948419321171965,0.021810726916962953,0.03550178824305705,0.04588905339107452,0.05163410155999193,0.07067294592180451,0.09835150509110413,0.1464845396748764,0.1952140505187554,0.2576718070065338,0.3103437850128774,0.3792524070321024,0.4320773156160458,0.5026409218189913,0.5756296963932357,0.6466003190182086,0.6955030517879175,0.7309675948876837,0.7951635274885529,0.8597407988508845,0.9146686122698746,0.9557886327951097,0.9583199377918916,0.9213565352184743,0.8579336073180706,0.8032126259128782,0.7309821455153598,0.6581821682309537,0.5983502895396651,0.536102160093213,0.46316322350681194,0.3901884689362163,0.3235355521709202,0.2677823719410073,0.1953447715747343,0.12417323562329718,0.07096954196462635,0.03812129543211418,0.0777336954880008,0.09410401297572468,0.09423768831158075,0.09424007485365271,0.0993920489669744,0.11759068159264396,0.11846143330964631,0.13216761486877804,0.14254080827979454,0.15783409709482044,0.19357825475196488,0.214442388472877,0.2069910449577561,MI
0.3216757521015663,0.3216757521015663,0.3216757521015663,0.3216757521015663,0.3216757521015663,0.3216757521015663,0.3216757521015663,0.3216757521015663,0.3216757521015663,0.3216757521015663,0.3216828583065321,0.32778173457552695,0.342891147249889,0.34324873143020795,0.34324873143020795,0.34324873143020795,0.34324873143020795,0.34324873143020795,0.34324873143020795,0.34324873143020795,0.34324873143020795,0.34324873143020795,0.34324873143020795,0.34324873143020795,0.34324873143020795,0.3432483777734663,0.3395402838582413,0.3105557989949923,0.27224201049532093,0.2428779480210146,0.2355982059834667,0.2556322081758511,0.29541734828254107,0.3316882175337734,0.34322163282313056,0.34324873143020795,0.34324873143020795,0.34324853495424046,0.34127709781594096,0.3233864694467541,0.3216766290025479,0.3216754770352117,0.31847361744281644,0.2781965868099223,0.23583377562162822,0.18168060962440036,0.13760227515989198,0.07825862074924395,0.03319973001399479,0.0,0.007113654100530553,0.046657197581853715,0.09948929444357324,0.15987840713675494,0.22025571584581094,0.27337329813767886,0.3197450310377312,0.37992279628889847,0.4403271384090943,0.5007314805292906,0.5611358226494865,0.6215346158907145,0.6770463351814273,0.7212644611730425,0.7811802118016309,0.8415845539218259,0.901988896042023,0.962270340479388,1.0,0.9693041642725966,0.9106172108724975,0.8502137456532832,0.7898094035330869,0.7296316382819197,0.6832599053818673,0.6301426767467424,0.573452022869509,0.5298948405181463,0.4725008743168715,0.43008283818538384,0.38469978671630667,0.35398797722605657,0.32632001633254326,0.30621430412585493,0.30010987897789043,0.3001027727729251,0.30010249770657005,0.29727345172150965,0.2799046558904821,0.2785298425632754,0.2779101946413842,0.26015830850062205,0.23745648052104196,0.2132103383322761,0.18810692884339542,0.17038637404131407,0.14124295800738462,0.11059416548010859,0.09025793397041104,0.07011753935535081,0.05828233764329527,0.042072098147655446,0.05358931580434989,0.07400667342827782,0.10422488911000949,0.1438507208480151,0.17493182637500038,0.20528134887677219,0.24290347009744995,0.27646723866712364,0.30647948134488523,0.33558589938287753,0.35549207115648107,0.36480054674180273,0.3648217107588496,0.3648217107588496,0.3648217107588496,0.3648217107588496,0.3648217107588496,0.3648217107588496,0.36482881696381453,0.37092769323280983,0.38567952172685294,0.37093012745978804,0.36731136714125023,0.3852807439103727,0.3863945722019104,0.38639469008749083,0.38616811321846223,0.37213550399831874,0.3648487441699908,0.3648005467418036,0.3555073005834961,0.34339065610041475,0.34324873143020795,0.34324873143020795,0.3432484563638529,0.34041941037879164,0.32305049666218455,0.32046628548570144,0.28915151894017743,0.24917531483731548,0.2159873252522191,0.19362072168186328,0.19474842503346013,0.22172852607086124,0.26084330420367907,0.268857602612643,0.2571011730128263,0.2594393642930779,0.27738874866008656,0.2674789171709233,0.2570604416994935,0.25695681411564175,0.25695681411564175,0.2569564604589001,0.25278093906911314,0.2165457035793037,0.16859225106703546,0.12236580308414036,0.07381665507811253,0.04130371635844288,0.025702880565037667,0.055656696334605904,0.10363145664106721,0.14960696901077108,0.18100145342334129,0.22901576504822563,0.2892508347255265,0.3398207964994473,0.3693769066703263,0.4133908676731739,0.4662299430304784,0.5266190557236596,0.5870233978438559,0.6474277399640527,0.707832082084249,0.7682363750854524,0.8278604067579871,0.8532985945185763,0.8033448305020574,0.7602317424621292,0.7063428157169658,0.6633113788663492,0.6053956390697026,0.562968221994522,0.5087309257229631,0.46802025653468515,0.4338224711536429,0.40958992340854605,0.39518143971690867,0.38646002058498663,0.38639469008749083,0.38639469008749083,0.3863913298405399,0.3818496405050351,0.3618378549185066,0.34393020391609097,0.3277725085051326,0.3158377843090796,0.2958982759893667,0.2676936256845126,0.24002790254200823,0.21795063531144088,0.19284175350275223,0.1731483238794933,0.17017873953644447,0.15399013829987807,0.14980064847101993,0.1664883755255766,0.18811062568241654,0.2180778341512748,0.24739224242082614,0.27121359195129147,0.30861012274159805,0.33902932079111103,0.3703216272277574,0.4048841952922806,0.4184896152906399,0.4295135501376959,0.42954064874477416,0.42905205725316486,0.41286584112458513,0.40797321829510214,0.4079643091691816,0.40342297349041845,0.38709784273571257,0.3863947392064828,0.38639469008749083,0.38639469008749083,0.3863943364307496,0.382707681598927,0.3658607183060596,0.36482166163985763,0.36370776458173104,0.34573128160764366,0.3432511656571853,0.34324873143020795,0.34324861354462755,0.3421347852530898,0.32415830227900244,0.32167818632854406,0.3216757521015663,0.3216757521015663,0.3216757521015663,0.3216757521015663,0.3216757521015663,0.3216757521015663,0.3216757521015663,0.3216723918546154,0.3171036039120332,0.2860469945277564,0.24842730753405506,0.2180871977548473,0.19398274291480888,MI
0.8298125318444676,0.8296207042173904,0.8114454208017925,0.8012155150084643,0.8011855373334305,0.8011929484572589,0.8061337331419169,0.8287224847190702,0.8353102125832859,0.8574336610588755,0.8586373183683911,0.8735908098879781,0.8829728922017992,0.8671932517627701,0.885493602251044,0.8651283000920333,0.8607866203795504,0.9028551048753908,0.943039393315817,0.9781855181965726,1.0,0.9779872810298622,0.9729553046019497,0.9717224751150679,0.9485360591233274,0.9443248083846916,0.944203016646008,0.9182694749034574,0.8427514575938524,0.7862701505768186,0.7725777448590287,0.7616878780445706,0.6881630609940181,0.6013024810993457,0.5171389844576906,0.4541221710159764,0.3928752602248684,0.37915211046289876,0.4304486164055046,0.5033715063822601,0.5901877483785505,0.6770790964238156,0.7639699488045384,0.8478222811624825,0.8585141808028851,0.8029561887678662,0.7364013272535272,0.686103523935496,0.6304608897178898,0.5961249125157613,0.5671896624908426,0.5432959128848127,0.5127647539651612,0.4802994127580895,0.44010126942581707,0.39675050736440287,0.35320604851780146,0.3098603788848653,0.26611331610352984,0.204503021580833,0.15083936173580526,0.10776110803227734,0.07644554826911643,0.05726196513069004,0.06235440918293378,0.09882316553810444,0.13002140066214718,0.17408567433475053,0.23997107680668606,0.2985182915411544,0.34740200414158107,0.40454256703269476,0.4624208767636464,0.518524287161167,0.5687918346774481,0.6266858625363376,0.6780728867393115,0.7239619815165677,0.7908125640357362,0.8298353085173593,0.8560553366557118,0.8584390365223094,0.8584395263555047,0.8584357709676667,0.8512257623708779,0.830274569297468,0.8219466347886693,0.801622425684112,0.8011855373334305,0.8011855373334305,0.8011855373334305,0.8013209563886292,0.8148754204558761,0.8297263748078985,0.8298125318444676,0.8298125318444676,0.8300259170967745,0.8453311772943612,0.8583740899206713,0.8584395263555047,0.8584395263555047,0.8584372171418648,0.8532883653224728,0.8171370872763806,0.8013583319430344,0.8036300889981192,0.8363853541995105,0.8798256612858619,0.9069002312308267,0.8877998269888305,0.870422663771909,0.8585021769600703,0.8584395263555047,0.8584395263555047,0.8582631900212645,0.8380400166290451,0.7831325652098391,0.7167268482766183,0.6519472255251708,0.6346598109232291,0.6535069110870264,0.5984029636282022,0.5355344543557656,0.5213949610701647,0.5654238183078659,0.6280614523429291,0.6722800401945621,0.7361301512667175,0.8191952866514454,0.8298162243632188,0.7616607676854885,0.7019346344596915,0.6485596850983066,0.6053061236335129,0.5761948479226291,0.5472449799993138,0.5182918698467462,0.4840427357705739,0.44061355491069687,0.39725203092329675,0.3537148894710631,0.3103640582814373,0.26067157126440144,0.20909780516221588,0.1657077244231573,0.1221822421442269,0.0766815506916938,0.021800826433429954,0.0,0.0008584349218923037,0.028529368335552974,0.07185489928895361,0.11534225970266387,0.1653712470943436,0.240635357577486,0.29919135663701546,0.3479840592371195,0.40516744171959207,0.46304630542856184,0.5209251691375325,0.5788040328465023,0.6366822026251127,0.6924687156270481,0.7433455259595148,0.7941187062168984,0.8375232923648701,0.8810133822218784,0.9137105511967247,0.9187134488514976,0.9426456749585066,0.9249473588455093,0.8901189764148221,0.8870674247254158,0.8870665208665418,0.8870665208665418,0.8870665208665418,0.8870665208665418,0.8870665208665418,0.8870665208665418,0.8870665208665418,0.8872643128794273,0.902219816213929,0.9172850261256071,0.9397379486593023,0.9316978947740635,0.9162034498257752,0.9317788873867769,0.9217834019150066,0.915703395403181,0.9102048242752279,0.8881962103074672,0.8718858135862098,0.8589502480356233,0.8807139550616423,0.9232161740995091,0.927312070834887,0.8987464572891142,0.8869956496057876,0.8693404755759202,0.8584745806835521,0.862197171481605,0.8854926750667804,0.86590513309707,0.8207844878649944,0.7756471299232919,0.7872489816908272,0.8132501787273689,0.7667023421052788,0.6821302833677008,0.5952395709393219,0.5083482228940568,0.42145871755462494,0.33901482760732904,0.29320673408358733,0.30508990342352504,0.3668709878257319,0.4531143272794038,0.5377131023828925,0.6014132564582386,0.685163015512833,0.7720226176728957,0.8399731496445577,0.8131449213684547,0.758740882911499,0.7021333732799624,0.6680813942737682,0.6312241990626299,0.6037203745705568,0.5824060713435584,0.5534868027717206,0.522592650433447,0.486196172454215,0.43114257690868385,0.3808028521373785,0.34886311847301155,0.30575031579171164,0.2542991902294487,0.19703779143081412,0.17102614093863888,0.1501859905883185,0.1445872326619222,0.17464809853208063,0.216346723589238,0.2537819366565497,0.3051865332852506,0.359812000685646,0.40814832373688503,0.46554580417614666,0.5234246678851173,0.581692841331888,0.6565154127134871,0.7168097421775386,0.7674368943687755,0.8232263751634399,0.8662548284285849,MI
0.42963861896506916,0.5065582869248333,0.5680447362776393,0.6399340304234551,0.7060986244991829,0.770605565820647,0.843067374155174,0.9010560556087475,0.956113936329281,0.9673601046756533,0.9197089381928913,0.8567859784740799,0.7811642038079762,0.7075883236712954,0.6401107799573005,0.5570013727642609,0.4935189502988422,0.4153646374931306,0.345266756555187,0.27445285220908744,0.20611451728886276,0.16560112935059745,0.22224722959757326,0.27798904102407995,0.30841849725982495,0.3424811742137619,0.3268616091935508,0.319522546339976,0.3195176697611002,0.318501139000559,0.2977179150030098,0.29074544686039605,0.26789258763012924,0.23466978086412293,0.195585761051416,0.20435415626131803,0.21566329280123409,0.251325528944661,0.28036587376941746,0.30837302908341524,0.3162198968754302,0.29350712673910095,0.29215196504614926,0.29215196504614926,0.29196950861237525,0.27782499639489,0.26492577114993754,0.2771160209203911,0.2842686838643278,0.2663998577918596,0.28726758679264197,0.2921446873339235,0.29215196504614926,0.2921507404234971,0.2885691936408774,0.26195279005809446,0.23756054545320637,0.21032181956282425,0.18224805542226807,0.16076401990960676,0.18878688641167773,0.23578758776415132,0.27788827538517147,0.31434360194602373,0.34046560652351854,0.37346575441936025,0.39206905758650734,0.42589177182948035,0.4289801429023763,0.4289733960318056,0.4239808681279227,0.4026542401247335,0.40139355258220366,0.3864478639567537,0.37518816891215057,0.3953920424519266,0.3853368917878246,0.4039642962209715,0.4679662095975816,0.5301989510367724,0.5906593742175348,0.6544098869875992,0.7262844764858993,0.78743992691175,0.8467147492080223,0.8663005345823667,0.8500461726311856,0.7934916543071777,0.7318803096867903,0.651501597027984,0.5673954476867689,0.4924067616319858,0.4261796268197582,0.3428023648469143,0.2786857436098824,0.20232804064165766,0.16818903881535352,0.22038291028789647,0.28499248987076964,0.32927388540513114,0.36706238994679996,0.3742320803409731,0.37424953933748295,0.37424953933748295,0.37424856304785337,0.3714855447484302,0.34576587901463984,0.3177386321535227,0.28137702937286146,0.23165974632068842,0.2053424867627962,0.19389555123911872,0.2212075446961732,0.26146345663073145,0.30267843537181527,0.31929906969406474,0.3191688611216996,0.30163662038966255,0.28949879881146856,0.26677021657132105,0.2544204034691253,0.23754807828695235,0.23742024885192858,0.23742024885192858,0.23746108228508866,0.24793744381803862,0.2644849569430825,0.2629737979168789,0.2412892357327321,0.23521703697086238,0.21271815748870626,0.19135217249250847,0.16321216567408037,0.12242167021505512,0.0640764522306494,0.046245813695333204,0.06639973928123588,0.10097069524879654,0.13649068311889057,0.18636620901691536,0.2342366539041114,0.2763235017027199,0.3133469925563386,0.3195051638950561,0.3195216309162836,0.325723086269468,0.3461666480300627,0.34639326681513705,0.3264735782292494,0.3372903252730053,0.334245645962147,0.31961655923219023,0.32303678720886797,0.34956654400610176,0.3983414453084668,0.46237198471991814,0.5250739706850016,0.602215160058245,0.6655879244333427,0.742280645602432,0.7992403688394241,0.8625739937375121,0.9263831208852666,0.9439117576993326,0.9034603726800015,0.8386781966391768,0.7680911736555602,0.6907028413704817,0.6265172017208585,0.5452662724878881,0.4831996494191406,0.4022346538550332,0.32750677982224286,0.26110171213362143,0.18825194744586415,0.166692771322694,0.2275432076042092,0.29002229511460254,0.3191318361027573,0.3195178231432614,0.3195178231432614,0.3195178231432614,0.3192064591576509,0.3024399150595558,0.292160796684958,0.28253181003434413,0.24291326709922512,0.1983474284698774,0.1568807642550052,0.16388171457686163,0.20312910776137372,0.2379582933891191,0.26255967068243624,0.2647853838617067,0.2647861069490389,0.2647861069490389,0.2647602885863183,0.25398283708753944,0.21323647045597216,0.22557743914823636,0.23735416729133707,0.23742024885192858,0.23767356601841794,0.25546437869754435,0.26475657585830525,0.26478571984167854,0.2632734488492723,0.24167965110408485,0.21977594222351815,0.1843131331722434,0.1562515795149162,0.11955523683184133,0.07327638659836744,0.03513036332225994,0.0,0.04294951106796585,0.08146763585034744,0.12768842397346525,0.16480007244010686,0.19643519015189614,0.24646513771393508,0.2773401115128946,0.3131195476797455,0.33397536405825257,0.3689413782713915,0.3742409526029915,0.37424953933748295,0.37424953933748295,0.37368749798875545,0.3534194485500626,0.34691538714078085,0.3564447536047517,0.3847702916656637,0.4364494407606889,0.5068363953138721,0.5754772912773118,0.6462911956234105,0.7153220591561595,0.7778087358042312,0.8509024784682264,0.9132246846999896,0.966634074943828,1.0,0.9774199948860129,0.9100309691372948,0.826172546258757,0.7559619568072335,0.6850165766582421,0.6028105333764442,0.5404045864853568,0.4603896884525849,0.39364038969112425,0.3195229161418549,0.2542202227470014,0.19215711334525398,MI
0.012567845427194024,0.019176990384991877,0.029471990119478653,0.03567876807069825,0.042236176314261575,0.056719022185014456,0.0789435344539231,0.10922644112614432,0.1443278197605682,0.18184257992589514,0.2185934434054746,0.26076012016899175,0.3034494535255403,0.3401431833467252,0.38333704985657224,0.42735069601920284,0.4713461724649899,0.5122153296102303,0.5501438067931637,0.5939436529499575,0.6379577422615799,0.6815312848843602,0.7186102243213273,0.7605432712628541,0.8045506991923346,0.84849929203392,0.8877273888847301,0.927195184502783,0.9701054943485157,0.9876042807637329,0.9582128032352868,0.9215853642053933,0.8792523563644394,0.835797603536443,0.7989325430142129,0.7566729508763275,0.7126629376952196,0.6686488483835968,0.624698107821323,0.585161620046674,0.5459988472413986,0.5020558914528421,0.45804180214121915,0.4140277128295966,0.37002486613406527,0.32849290503264084,0.2911326365842841,0.2474347558988419,0.20342066658721913,0.15940676920133523,0.11638246389601647,0.10416651024466872,0.13273403080389,0.1526997725419379,0.16593731542708978,0.17599439945477724,0.19046897996135015,0.20094280754769467,0.18570047898711395,0.16389429501672836,0.15070397033092653,0.15708638444191858,0.15868025884943826,0.15868290548674557,0.15868290548674557,0.1585503582047123,0.15298292392388513,0.14925105792454585,0.1492195051710088,0.1492195051710088,0.1492195051710088,0.1492195051710088,0.1492195051710088,0.14921941310906872,0.1488454739991225,0.13770828673514468,0.1160975886187523,0.09409059424198962,0.07213818456106713,0.05289606126118773,0.032550276037897286,0.009373523453239052,0.0042055631790636205,0.012488101558481457,0.023089985830778925,0.03210497800558554,0.04250589298052998,0.04980638916381208,0.06403427078014867,0.08668676630620298,0.11658678360355479,0.15013878794282887,0.18908913681387451,0.2267631817809681,0.26982460812997977,0.3064972138418296,0.34908506513824333,0.393048571331575,0.43251968908911964,0.4717376038073209,0.5156757656327462,0.5596898549443694,0.6036859703969566,0.6445803866317648,0.6824870000824186,0.7262828118751239,0.7702969011867471,0.8143062174152327,0.8564175924516233,0.8933724218070029,0.9368855989776428,0.9787434097205758,0.9962876459026293,0.9716852013938091,0.9323923178808631,0.8903019363455114,0.8533543712279812,0.8098576152414259,0.7658435363322824,0.7218305672832477,0.6787877440092402,0.6421771558891995,0.5992497784106363,0.5552364900899036,0.5112224007782811,0.4672083114666581,0.42319697208085794,0.3808217551139226,0.34402433207574834,0.3006151444058256,0.2566012652242806,0.2125921530176118,0.17053687883057145,0.13355249182105688,0.09681345593887647,0.11348795473678952,0.14228542569613967,0.16295155359036384,0.16960625933390583,0.1849566836855452,0.20005304670285318,0.2100437822097565,0.19304983426576694,0.16685707817892226,0.16005723208174305,0.1672793522874796,0.16814565607646026,0.1680862514842132,0.16369208574773753,0.15875825915098107,0.1570759784425928,0.1498374164492371,0.14921974442802832,0.1492195051710088,0.14928124360569406,0.15402368670281708,0.1586149639474559,0.1583096859902473,0.1514227085479649,0.14572506715433198,0.12705445202169385,0.10505698066235514,0.08304994236714625,0.06104284743228616,0.039035843060291286,0.0170682623952938,0.0,0.0022661980254239378,0.010990181772898122,0.021670199350001473,0.030496089745386312,0.03927682501288188,0.051610569883604684,0.07495476986112393,0.10314928346436014,0.13804689658589697,0.17341373994857845,0.214043263717679,0.2552023154502725,0.2928629619127836,0.3366133871094923,0.3806213700373102,0.42244919931432,0.45957576035050685,0.5032064485851608,0.5472204333518698,0.5910400003130167,0.6288695196259915,0.6698160680162673,0.7138133902826231,0.7578224640928068,0.7998822853547645,0.8368683386521094,0.8804064892072176,0.9244069357135674,0.9654703669513305,0.9989852882850556,1.0,0.9638102107339757,0.924674959121992,0.8852192909940615,0.8412538478678782,0.7974197096163302,0.7592962254333253,0.7186509358251096,0.674660890937123,0.6306468016255007,0.5866327123138779,0.5426257559820089,0.5007269326692265,0.4636260975123536,0.4200397553831232,0.37602566607150045,0.3320115767598768,0.28799748744825404,0.2440000978108101,0.20304641024113068,0.16522347113942204,0.12140793953493079,0.08134085981687478,0.08817549471784125,0.12035986909501539,0.1469291286175185,0.1589778316181889,0.16817087236548267,0.1830562539325411,0.1972825886474494,0.1960913538219613,0.16851003453173163,0.14593541926610842,0.1485986879599277,0.14921929348055918,0.1492195051710088,0.1492195051710088,0.1491873037700484,0.14546498800866248,0.1398371152392659,0.1354280378646402,0.13038074922168863,0.13029270453953545,0.13029270453953545,0.13045590992873946,0.1363101425244524,0.13870552056778407,0.1293874589973789,0.11600570124399323,0.09829979554621171,0.07277523010214448,0.05000300550559822,0.028011512830331542,0.008551571028145633,0.010383728727948016,0.036618308162140956,0.02765289438606855,0.009022692755811912,MI
0.44187880279126057,0.4894352635200083,0.5435739425140702,0.5983652420762358,0.6590195575573365,0.7228043794622065,0.7767690663671325,0.8388644401829985,0.8925514172451012,0.9155341757924336,0.884580847722634,0.8254787751892119,0.7678652896723528,0.7097700230349737,0.6454529841999701,0.5900576072525698,0.529525132316512,0.46958676875977057,0.4137017040244606,0.34919218070143243,0.28536164844923606,0.23126950777524913,0.17088661390668136,0.16086809397783508,0.21541072534047023,0.2711198928113516,0.32665197208747765,0.3607622885307391,0.36060020272563786,0.33657364347623053,0.31308742279195734,0.31910701533381935,0.2956940515966755,0.26169492289924134,0.27491162263600444,0.30779980154445763,0.33653182228069767,0.3468877563827415,0.32517468567994934,0.30805397380162924,0.3005031995984839,0.2783041472930301,0.27842451775239274,0.29042850323518854,0.2809989033892166,0.27519027563734166,0.2500352148345719,0.21192845583283004,0.16921419581335506,0.1260393184091173,0.08422422179941691,0.04430510164870993,0.005351592334188027,0.0,0.04046539421300732,0.08627915093183569,0.1253612295886941,0.16415776835941687,0.20235976741027972,0.22801427098553217,0.24349551771266453,0.2703682590253784,0.29494841346024625,0.3206104408712953,0.3449865885595078,0.3856432755918737,0.4312363735361404,0.48702019400192986,0.5407830716258091,0.6035767583061329,0.6634146469032305,0.7194342877386788,0.7839035752101187,0.8440036774082067,0.8997539776606818,0.958688909734922,1.0,0.9911613815578719,0.9365515566670748,0.8817551732491555,0.8174956654407581,0.7527261649836041,0.687956664526451,0.6231872439978088,0.5588745066277174,0.5038856579006477,0.44285256396547634,0.37809410941813804,0.3136039401417352,0.25763129312146793,0.19773756099360584,0.13425054945294823,0.11514403314304333,0.1684468029796502,0.22303234208484435,0.2751846142005001,0.3060697804138761,0.32490665204812297,0.32696218029515567,0.31612422614444124,0.28364674407420587,0.2477079157167128,0.21250328323011258,0.2181586575209753,0.24987171374552508,0.27579520046866746,0.27966241867563424,0.2885164468763701,0.29984273073569767,0.29853652569389455,0.2972221631699301,0.28751457527681445,0.2705141359714016,0.2390103434209987,0.2423582172834844,0.2675372495729924,0.2772022400984189,0.25865421694425184,0.23920801872057362,0.20167417548683453,0.1647767569104448,0.1217657132410368,0.08073988517165498,0.04555753049245359,0.03482574688194395,0.07006313022396249,0.1127828573957439,0.15183523273469923,0.1861049777023247,0.2116376877780568,0.2515287946993725,0.2806946067115921,0.3026258716893713,0.32675643547740574,0.3410202712862218,0.37865140083692106,0.4198912608920722,0.4710503841911686,0.526808976373879,0.5806471909928232,0.6427104574670484,0.6977166882483772,0.7587213538457198,0.8231026447639813,0.8783195838463529,0.9349301057070778,0.9623546405329799,0.9368423967360453,0.8743667049275001,0.8096243674046746,0.7495947562739707,0.6937782066809381,0.6292782854392684,0.5667572766410647,0.5127693314373687,0.4489538321498947,0.38623590648107253,0.33232561270456085,0.26862990125043584,0.20728602464595447,0.20740145678874855,0.2599853809169663,0.3172639480718291,0.36913866403118556,0.4013003290254229,0.39857751979003453,0.39708969345992173,0.3913085774167304,0.383584467841358,0.3438426117048117,0.3147921711513537,0.34530609330409057,0.3804547034318517,0.39113973174925665,0.38563437700381975,0.3598961527189717,0.33030270120130645,0.2996568317495689,0.3163091577812214,0.34348410397527207,0.3316169902303492,0.31523366827016996,0.3231109802166805,0.3271032925900288,0.3213234055247023,0.3152798461862787,0.31314544872025296,0.2955388370445977,0.26870774876207504,0.22509064991073435,0.17950396200192476,0.14130455493770366,0.09589014290225695,0.06603751330846963,0.087539086113952,0.12773316441940885,0.1618246429758443,0.17741837840810293,0.2198593055679412,0.2583621704740242,0.2814233098088108,0.29401046942290954,0.31073200359624575,0.3264955057822836,0.3536230086095151,0.3939216881550447,0.44356339598123906,0.49593208797474686,0.5582088787065627,0.6158424004975318,0.6739562000888655,0.738631531945936,0.8034010324030896,0.8676654560288615,0.9211914804324444,0.9478821915746432,0.9179091987757331,0.8652225039405077,0.8017156053659122,0.7405103634003076,0.6856529043291686,0.6213791318506159,0.558064404534492,0.5042586139700802,0.441052779802396,0.37674993797990153,0.3218098726392724,0.2607194476815202,0.19598875686589823,0.14148377757773334,0.1649138714781766,0.21803328676750988,0.274939775889512,0.32803387802474404,0.3479084545891187,0.3375611430819645,0.33189502196459975,0.3046223542461419,0.26267992517118977,0.21550555272871907,0.1618964929544382,0.11759123566127361,0.12848156514100806,0.1682250162021841,0.20936879071305237,0.23470813626993436,0.23180955188212993,0.1984019397437744,0.2010252721572665,0.22935328466593718,0.22749023153940495,0.23442434340045892,0.22402379613480417,0.1929677417168687,0.18179727952233504,MI
0.7763447587107435,0.7417458617792452,0.6938316340602482,0.6448799294725798,0.5999824534409708,0.6002946028969962,0.5948054052708529,0.5932118903557528,0.6042798203918478,0.6046941688105134,0.6046942133520754,0.6046942133520754,0.6048200122015972,0.6138541558385229,0.6097136747214891,0.6048943778050333,0.6172478372094345,0.6432066085690713,0.6796578325901477,0.7153961513982598,0.7670338744296812,0.8096326299564418,0.8438833096227043,0.8833131151706417,0.8990126281340025,0.9053300638992705,0.877494857217394,0.8431423247772867,0.8061971619789059,0.7776912737421773,0.7506799401657069,0.7343189044379343,0.7160281035548897,0.6964084889284821,0.6784312000077612,0.6548072033568242,0.6286725220032543,0.5835237954838348,0.5371442736965748,0.48543725005939375,0.4258700970911602,0.38247724810225403,0.3405678635375793,0.2892007068462852,0.22741761972823493,0.17492494626297717,0.11421820392108639,0.10705359263394199,0.1527817519273338,0.2013980911925084,0.24330976607239707,0.3028075294562522,0.364158505659276,0.41780139000373717,0.48238213736578617,0.5397143679459191,0.5969777652097155,0.6603407733831843,0.712813255356719,0.7746185301165878,0.8270467923564531,0.8903515547640759,0.9433395194748737,0.9930396593775308,1.0,0.9587580808321134,0.9062153734949181,0.8452601217743534,0.7918606550151055,0.7311431534276855,0.6779861622615297,0.6246728759741424,0.5787928307734753,0.5723830568498753,0.5724350738220094,0.5812470477719387,0.6176930465435628,0.656972340959741,0.700342645127169,0.7396921409820134,0.7659382834935577,0.7782390349304604,0.7373852508599739,0.6858908126241308,0.6414088118263779,0.6207624888944383,0.6072131327044645,0.6048156765061905,0.6128542768458485,0.6121335946846966,0.6205960040415408,0.6232458149370612,0.6272219409278974,0.5988155127249946,0.573152953944037,0.556739973115687,0.5592742775865625,0.5726667935017997,0.587583597063627,0.6147600094709116,0.6543798252463877,0.6982205122500038,0.7336501820535717,0.776641620410206,0.8202341820379235,0.8470660371000815,0.8736130207530795,0.860495854738017,0.8385164622466412,0.8049503774559574,0.7761171469522141,0.7479332192879506,0.7176936676052432,0.6920824757449942,0.6690173328124689,0.6540897271723649,0.6343363634453558,0.624812055939989,0.585181005545246,0.552721953101142,0.5123306327645039,0.45589338024128967,0.4038866158997032,0.3518596581215059,0.2928087508222861,0.23869713349755362,0.17869256709236003,0.12431621701555962,0.06014591754440657,0.008296685936638237,0.0,0.04817838375713901,0.10349956047216136,0.15215480531674253,0.19791233923253593,0.2585314949706601,0.31193096172990886,0.3733531648611539,0.42966411654810877,0.4878936211561564,0.5478200114385601,0.6025173304759845,0.6673620019514837,0.723003465705661,0.7819369398388676,0.841091607435017,0.8933026968273139,0.9232047806250634,0.9002432763037271,0.852548212875957,0.7889051026257108,0.7256698581715639,0.6730894707238679,0.61431519436371,0.5622564316271865,0.5277156723469605,0.5238625748979739,0.5199232566875214,0.5246818883240709,0.5523922243827917,0.586373487161103,0.6380239117327506,0.6770829777372556,0.7090955825194807,0.7313595948752285,0.7046048965844811,0.6565747422903678,0.6125999011922132,0.570764464783887,0.5563680506319235,0.5618143504201338,0.5605705696179011,0.5592260644954403,0.5715179986848229,0.5756169293718472,0.5877393033676963,0.5885325215035935,0.5885079856221731,0.5835166035596937,0.574205115737429,0.586539182693051,0.5943138563586228,0.6307137853950389,0.6628549386506819,0.7019554400022852,0.7388668565230976,0.7833409930557709,0.8223842537327526,0.8523407279097124,0.8601207829117619,0.8443214297648178,0.8126815117534552,0.7800975676899444,0.7514122219396864,0.7249645811961543,0.7008570046207843,0.6858175353924687,0.6695149210621598,0.6543924344406329,0.6350926462436504,0.6016538372837243,0.569435667050465,0.5154913624895201,0.46312086274481734,0.408052412278606,0.34994274183845553,0.28491143792944573,0.2288550772281761,0.17031167339549436,0.1108932443533246,0.07192619544282763,0.10114137110226773,0.15308608175286897,0.19027452873026585,0.23955637071479519,0.29379541235024087,0.3495674814421257,0.40802525244651777,0.46772337290630084,0.5226470481316463,0.5868124162499537,0.6396279144359283,0.7020377909006728,0.7609995540070797,0.816628093615634,0.8750772488293692,0.9297604133710355,0.9679651852196356,0.945860606402066,0.896712580540306,0.8374173991650009,0.7875228189291192,0.7496883542638133,0.7029842107168798,0.6483467734877397,0.5931333701543617,0.56453023353885,0.5709006069570468,0.5723859169208363,0.5794473640324656,0.6129147718457006,0.65033172357938,0.7010106712936874,0.7405685236905457,0.7746743520731907,0.778277597879359,0.7436381464973079,0.6948791319376992,0.6525704290810812,0.6188611436470643,0.6051671036053476,0.6050061267267699,0.6154852663813672,0.618846037288328,0.612701387663662,MI
0.3582847629303014,0.3423655102638081,0.36700588753335506,0.43324686628660913,0.5231422388450255,0.6150852769545887,0.7067493797166744,0.79903595079284,0.9003928273715402,0.9801924717723383,1.0,0.9346323375697976,0.8371169844683806,0.7279551300930684,0.6359830549533543,0.5188429341802836,0.4319421366271605,0.35352130783565716,0.2828514276757783,0.3028778828394847,0.3319562450865714,0.33364500752972415,0.3377223179619051,0.3994708251726786,0.4783925865403864,0.5478883445286185,0.5525524204753314,0.4893020060329363,0.4384364808066197,0.36758925197848136,0.3042454779161998,0.32706544859992714,0.3436158292336451,0.37088935130907785,0.39726176235437194,0.4082486729724186,0.416233731316038,0.4400972143590618,0.42171651358317863,0.4430557644821036,0.4142888045545323,0.37375068145777135,0.2922150373540564,0.22330145988667827,0.17574430737163738,0.15257279495335485,0.18205699242874296,0.21217889186553052,0.2600663841665334,0.30374819619056836,0.3330370848051105,0.33364513169474463,0.33364513169474463,0.33572172840589865,0.36920375006965855,0.41827163829353964,0.49401827175876445,0.602757770375848,0.6929053870834521,0.809802323286374,0.9040094713446241,0.9619085724623488,0.9240874325221462,0.8463875013878992,0.7666476189468208,0.660434491071765,0.5697394195640344,0.45939437282577433,0.3627219028809874,0.2779559509993348,0.3018836761318662,0.35745227259295653,0.3709105392028107,0.37237951879982845,0.4029527703530231,0.4639501009078426,0.5190437501773237,0.5675979242835059,0.5823941103421832,0.5112086725339262,0.41986272818291503,0.34586645598047916,0.33372135694299665,0.3486499021818936,0.3720342784502826,0.4012207189174344,0.4082718377943566,0.4082664720996929,0.401444743273605,0.399490147973494,0.3850408614534544,0.36678474955825635,0.3145350879829705,0.23178077908017158,0.19899173093541034,0.13033826976157226,0.0975718003442827,0.09538856565740073,0.13395769909059663,0.15207985551354763,0.19840859528236887,0.2214005170688642,0.2309123647444915,0.2528332131491764,0.23687617846152076,0.2597123188728405,0.2897602672045618,0.3581028422445982,0.45265411865169014,0.5531853309495691,0.6415623460578006,0.7401868117193224,0.8372119656277821,0.9232645442237253,0.9670349717068953,0.9400396626976777,0.8403297547460573,0.748486994952831,0.6307132612093937,0.5267092824831101,0.43173366094438403,0.3418084666813046,0.2522730392228727,0.287635767532862,0.29632041747054316,0.2963279510370995,0.2972630657057209,0.3316929805141049,0.41903874410405795,0.49992179046621743,0.5519507651157509,0.5211551351901695,0.455236958674357,0.38401516868624963,0.3251364110033155,0.2846610171301105,0.30454324054096027,0.32509663410650713,0.3142927528039232,0.3218243732367805,0.31824221044694223,0.3335718957665117,0.3336216774892238,0.32452925272133815,0.297314533027472,0.28349813641734656,0.2437519296425661,0.16974847184650255,0.10314162605362487,0.06049774772476457,0.0029782720382973693,0.0,0.03404670519694797,0.06975171892358034,0.09989332325808498,0.11715753406581442,0.14562580165962657,0.14705922840652086,0.14712685960620497,0.16228335566445118,0.20976554049881546,0.2977110235487288,0.39884846955201514,0.493729301958969,0.5984404666469629,0.6827085138037798,0.705841045728568,0.6670449902049604,0.5830379713955178,0.4735091663630815,0.3834630592678785,0.2666514614833684,0.1719979023400633,0.08818248824328023,0.1336830872423196,0.1819808771365503,0.21883977476419414,0.2649228058145967,0.29534655806223054,0.3233718803854808,0.3935813032190678,0.45261302334443343,0.5297227117780752,0.5526213508772724,0.4895993736147455,0.40007202813153153,0.3217830548475673,0.31360524490630315,0.3335725730791914,0.35547194061225795,0.3708914611773402,0.37096231235238974,0.3710976937581938,0.3888767941164808,0.39155790997257434,0.3924854594353704,0.3709096639026752,0.34225392294253876,0.2750425564475085,0.23087119446879,0.16849505215474458,0.11205252548251021,0.11469176691586469,0.1608388930793465,0.19174749100710997,0.22061638976864995,0.2478793069415106,0.29253466956467644,0.2963260493517952,0.29649720754596576,0.3167275790804247,0.35868443336411815,0.44445095561630055,0.5368580521784816,0.6278791100811558,0.7186034056939192,0.8086847042443575,0.899844095519942,0.9552430416725226,0.9445653246508954,0.8615531201970379,0.7682340813996156,0.6616613441534831,0.5494519592127585,0.46817311549791985,0.3836388005129612,0.372714241402905,0.39550315657123924,0.4042905801415291,0.4129244872630222,0.4333220161706297,0.4169392295435319,0.47628466978266193,0.5782489841930545,0.6532349962787345,0.6670185870648586,0.624082877528739,0.5579150643542343,0.49085029591892404,0.4199278679937777,0.44848543870826774,0.48242275339418406,0.483104033691963,0.5041431124314188,0.520559784940084,0.5436529564128048,0.5326024627759649,0.5520499326321842,0.5325853613272118,0.5413932248197444,0.49165233875038705,0.4552828537841709,0.37817677729362664,0.3221147773012767,0.27093612396024636,MI
0.09485041507901437,0.09485041507901437,0.09586351172492868,0.10659776662828202,0.09674615104135187,0.08666954737459509,0.07344552796919235,0.06316352865831876,0.05123512666122787,0.050471212174095115,0.06076963711251615,0.053879405544118075,0.04955370599276998,0.03915163667818389,0.04775530532711425,0.040684642517465175,0.035281993759233465,0.036929847156872864,0.052493783176197795,0.07300357515753175,0.10862958035215708,0.15902005042591894,0.2013355673969759,0.2533279040558556,0.304505199615984,0.3472445742447299,0.4007042999154229,0.44876454480820627,0.49415572532932295,0.5481372699115541,0.599950127871292,0.6423140834319883,0.6953619044740127,0.7402959278631331,0.7876221392129992,0.827006954901806,0.8627483180116706,0.8776512736668085,0.8471445832116657,0.8061917782420802,0.753800185678756,0.7029050121878884,0.6599725711817048,0.606388408903118,0.5522888485909192,0.5001740660072875,0.4578936300011942,0.4048813827522193,0.350856098105798,0.30385798489405813,0.2574047867386775,0.2037745034847771,0.16010020278654835,0.11215039538021054,0.07556111181407754,0.058873498338360086,0.058838458289627305,0.08376833757399282,0.09901828399089885,0.1093234274345698,0.10174219314544697,0.07440876056218748,0.04716471137448819,0.03597522801598885,0.046703010252535204,0.056183754775288364,0.06493392305889412,0.06841556886439104,0.07603968458365573,0.06579724906440987,0.07570613522225811,0.07993924986454326,0.07787837309025303,0.06608617283846074,0.06505376242903393,0.06456910290002238,0.053771431068201814,0.050160600095999985,0.050155473011121554,0.050155473011121554,0.05005851481091561,0.0422668354457687,0.04441585016452754,0.05014319159063296,0.05617502639355054,0.06496736587838736,0.07240986664913329,0.0896586875094858,0.10308914472574404,0.10536889704527441,0.09421511232039848,0.08589592525196288,0.08658213180414487,0.07664230975083752,0.04843704578683106,0.02812882757861157,0.020417215462686045,0.018676596572867243,0.006844510756125022,0.013393107125183157,0.008299057001696308,0.0,0.00658914835411295,0.014784786307819875,0.01025090192645095,0.020052881850925797,0.026631357268807943,0.05973411376650528,0.10002335534390117,0.14081899987086688,0.19144566368390326,0.23364623601440382,0.2859839543880729,0.3365079307021013,0.37005451312679005,0.40446294308100317,0.4576976864428137,0.5117987210496286,0.5659000496180853,0.6191438834098064,0.6615414796840628,0.7130733899302513,0.7573635967977101,0.806315666270427,0.849512255153563,0.8901462024535536,0.9250911698276112,0.9228236068477522,0.8796753104981394,0.8347895811314179,0.786195239319035,0.7321185111367581,0.6784953430172487,0.6351629939700412,0.584707269480321,0.5306114940507549,0.4767258998170383,0.4319943316626431,0.38318308505069254,0.3292616664845198,0.2841343309100921,0.23577357888185713,0.18181068005897716,0.1362747277179981,0.08973912962159725,0.06561742772361256,0.06598861027223624,0.08323799786418462,0.10993510940960016,0.12380425391292071,0.1080103845964806,0.09305982769626109,0.06912353856537212,0.03780670753565962,0.0493871381646116,0.07392038096468889,0.07778246569069092,0.06689283847194183,0.07931980735809896,0.0886074236226273,0.07661308424064339,0.07407163543765094,0.08093535161360155,0.09169945260565138,0.08216562332912991,0.09052865392963705,0.09191059552230607,0.08081208549716346,0.09015233844341664,0.09641283455103133,0.1086626330707623,0.11956514128873819,0.12462579172100252,0.12466935438759075,0.1299092661366661,0.13876251857874733,0.12785234430831816,0.12504850027253855,0.13597908818750248,0.13953698722472074,0.13943684794715017,0.13412774862232046,0.13085877706697557,0.10609984610416312,0.08645850956115542,0.06833446376918939,0.04748627497087732,0.04532770146015919,0.03959512797683562,0.026436723481422675,0.02581974025609579,0.02539267933659284,0.031062083088464476,0.028421068849068476,0.02045264167993599,0.02037717972507247,0.025206834328783234,0.04273433032270768,0.06670595275581404,0.09796687265154613,0.1344776087390458,0.18457127139470808,0.2386629639680593,0.2927642925365155,0.3464099030141208,0.3894649803915229,0.44017679181018377,0.4927203521493433,0.5347935473950716,0.5875761163415021,0.6413873407543513,0.6850409827410582,0.7349915766162933,0.7890510937196384,0.8368278712874986,0.8821060725365002,0.92495370786032,0.9655833080752587,1.0,0.9927809272157719,0.952707681492277,0.9083660005622516,0.8594045890890616,0.8053247196758972,0.751311892697351,0.7048229329981885,0.6578804046594326,0.6038177194247032,0.549716390856247,0.4956150622877913,0.44151408466032516,0.38837575469137997,0.34607179729091486,0.29410682532572663,0.24077790212728312,0.198349787703068,0.14794886595431178,0.10659405123725385,0.08196247436534865,0.09285348210685473,0.10329427572648697,0.12765628323070555,0.15186522938646574,0.14315537060568229,0.12160640642746223,0.09955717350028692,0.08426297378871883,0.07268329323479206,0.10157434604727955,0.12136290266371974,0.1048190676864702,0.11049105938805237,0.12277178987837312,0.11158661505315148,0.12094250557513142,MI
0.0316265541758578,0.0316265541758578,0.0316265541758578,0.03155112623299772,0.023785588173173,0.02440926277224209,0.031525878915624084,0.0257573164303162,0.016575585483106448,0.02866216030088875,0.031744339487183026,0.042056753724638796,0.07144235691090284,0.10961078633141152,0.15184649125178673,0.20176297959064193,0.24483697828707385,0.29922025642420724,0.34813884523356897,0.3954100015688131,0.4511692411328463,0.49766425354777466,0.5474421020293176,0.6033989354679501,0.6560435289344855,0.7000345566281787,0.755480101341738,0.8114855409566046,0.8674911236244647,0.9230423741873186,0.9662761658070416,0.9975613749151369,0.9966364877759593,0.9614538645999966,0.9099551213859054,0.8654936561520645,0.813415291969116,0.7574201063352044,0.7034864710706552,0.6602280853514175,0.6053397046945102,0.54933440958495,0.49333575974807475,0.44118860574181085,0.39682146724675826,0.34125116773081565,0.2852529502462722,0.23332283882985871,0.18880409359843586,0.13348353115786038,0.08822256786785321,0.05186938669517449,0.04782910785628802,0.058971411566898,0.06376558784775277,0.07814258295889243,0.09477595935368877,0.09538273879810166,0.09526217749337373,0.08448723021916793,0.05806532780128526,0.04867246901612576,0.06121670120090972,0.06351898919440702,0.06885466017504793,0.07916897796760924,0.0794437603567113,0.0789998130903804,0.06808855432892846,0.07578364951019978,0.07608486969465078,0.06524099453353793,0.07741131680448188,0.07740398119333847,0.06465429834387137,0.06751631674271685,0.0789875843040746,0.07944375164282347,0.07955010816641561,0.08817121882142942,0.09532035679427864,0.09538290944507288,0.09538290944507288,0.09538290944507288,0.09538290944507288,0.09529691716000555,0.08683899461107103,0.07973950704225219,0.0907245531704266,0.08900652504194984,0.07973950704225219,0.08894571860084799,0.0916770240461715,0.09321514786176932,0.09539464691929433,0.1003763271054745,0.11100928216863082,0.11312408094825033,0.13365733639196442,0.1549602232855083,0.18146259200002213,0.1963227033024757,0.2047759374451621,0.18405753593605034,0.15601683055579718,0.12315942849627026,0.0959398620927221,0.08040558974886558,0.06403673163473167,0.047793850053863274,0.04756564299316146,0.04732748669191844,0.03731422952334773,0.03164599344421504,0.0316265541758578,0.03135986403990154,0.021112448608227474,0.015705480203660027,0.015927273848387102,0.029583545338547346,0.06044749524318638,0.09979371018365146,0.14165621705096765,0.18809655960679494,0.23510298555886866,0.28799965935458216,0.33170058821004966,0.38706767929138053,0.4415614187867827,0.4846401271302758,0.5391462490789376,0.594990411190436,0.6413978867407955,0.6912669579548241,0.7471785706772933,0.7956143798714272,0.8433830600256504,0.8982739931523507,0.9415162769810554,0.986220289009609,1.0,0.9764087139462871,0.9334653687811487,0.8776796392214083,0.8216741429662688,0.7661491677819945,0.721742927117313,0.6695890656965533,0.6135908146994145,0.5575852320315549,0.5018361488443972,0.4559943536571027,0.4054890492775831,0.3495019901774197,0.2935358506617751,0.24348433398277525,0.1972519321615529,0.14142629880045865,0.08958936321297672,0.04570732489115725,0.023658177623417043,0.03294486062045765,0.046822036263919564,0.060990405080602716,0.06439268412163734,0.08209364460653834,0.10666801016965133,0.11625124730476077,0.1265562953923367,0.11488925474405276,0.08891286819345146,0.07946987802664607,0.07944382062776922,0.07944382062776922,0.07944382062776922,0.079509496944834,0.08736437880670511,0.09530616095943722,0.09538290944507288,0.09538283029392458,0.09491240620402142,0.08336629663302197,0.07945138145051045,0.0783270624771748,0.06567673060257473,0.06350621317140437,0.06476703965154851,0.08391687723540864,0.1041431855187831,0.12475059390055954,0.14657920419059023,0.15868331724777462,0.15247486143938938,0.12101036391278219,0.09045000276011583,0.0627185666496004,0.041658221944309126,0.03178384185323457,0.0316265541758578,0.0316265541758578,0.0316265541758578,0.0316265541758578,0.031518838261875626,0.022576018867494607,0.01570038397936413,0.010936670172804863,0.0,0.0031516691414883446,0.017021636896988657,0.041693129663595396,0.07879270905062663,0.11875703798397907,0.1607858035783396,0.21461643167002142,0.27061883953112975,0.32550722018803935,0.368765605907277,0.42269924117182534,0.47813534938002444,0.522199274402336,0.5747805135883,0.6307788575642346,0.6843344378664997,0.7272667245947373,0.7642614614933052,0.8069325741819449,0.8520819920256204,0.9028385779334434,0.9473015655869474,0.9800117075542354,0.9777427339419349,0.940118721880101,0.8971181293615009,0.8426397357829667,0.7987978257058455,0.7459770720177499,0.6899777055135345,0.6364972898839052,0.593061449912271,0.5378957693748854,0.4818901867070262,0.4258846040391666,0.3698790213713057,0.3138734387034461,0.2578680804181994,0.20269910476712427,0.15914176526057444,0.1058096132150288,0.05541686187271555,0.038452885900614575,0.051005796370063194,0.06307360744471024,0.07163158563058936,0.07945329503766896,0.08722347002435793,MI
0.3216757521015663,0.3216757521015663,0.3216757521015663,0.3216757521015663,0.3216757521015663,0.3216757521015663,0.3216757521015663,0.3216757521015663,0.3216757521015663,0.3216757521015663,0.3216828583065321,0.32778173457552695,0.342891147249889,0.34324873143020795,0.34324873143020795,0.34324873143020795,0.34324873143020795,0.34324873143020795,0.34324873143020795,0.34324873143020795,0.34324873143020795,0.34324873143020795,0.34324873143020795,0.34324873143020795,0.34324873143020795,0.3432483777734663,0.3395402838582413,0.3105557989949923,0.27224201049532093,0.2428779480210146,0.2355982059834667,0.2556322081758511,0.29541734828254107,0.3316882175337734,0.34322163282313056,0.34324873143020795,0.34324873143020795,0.34324853495424046,0.34127709781594096,0.3233864694467541,0.3216766290025479,0.3216754770352117,0.31847361744281644,0.2781965868099223,0.23583377562162822,0.18168060962440036,0.13760227515989198,0.07825862074924395,0.03319973001399479,0.0,0.007113654100530553,0.046657197581853715,0.09948929444357324,0.15987840713675494,0.22025571584581094,0.27337329813767886,0.3197450310377312,0.37992279628889847,0.4403271384090943,0.5007314805292906,0.5611358226494865,0.6215346158907145,0.6770463351814273,0.7212644611730425,0.7811802118016309,0.8415845539218259,0.901988896042023,0.962270340479388,1.0,0.9693041642725966,0.9106172108724975,0.8502137456532832,0.7898094035330869,0.7296316382819197,0.6832599053818673,0.6301426767467424,0.573452022869509,0.5298948405181463,0.4725008743168715,0.43008283818538384,0.38469978671630667,0.35398797722605657,0.32632001633254326,0.30621430412585493,0.30010987897789043,0.3001027727729251,0.30010249770657005,0.29727345172150965,0.2799046558904821,0.2785298425632754,0.2779101946413842,0.26015830850062205,0.23745648052104196,0.2132103383322761,0.18810692884339542,0.17038637404131407,0.14124295800738462,0.11059416548010859,0.09025793397041104,0.07011753935535081,0.05828233764329527,0.042072098147655446,0.05358931580434989,0.07400667342827782,0.10422488911000949,0.1438507208480151,0.17493182637500038,0.20528134887677219,0.24290347009744995,0.27646723866712364,0.30647948134488523,0.33558589938287753,0.35549207115648107,0.36480054674180273,0.3648217107588496,0.3648217107588496,0.3648217107588496,0.3648217107588496,0.3648217107588496,0.3648217107588496,0.36482881696381453,0.37092769323280983,0.38567952172685294,0.37093012745978804,0.36731136714125023,0.3852807439103727,0.3863945722019104,0.38639469008749083,0.38616811321846223,0.37213550399831874,0.3648487441699908,0.3648005467418036,0.3555073005834961,0.34339065610041475,0.34324873143020795,0.34324873143020795,0.3432484563638529,0.34041941037879164,0.32305049666218455,0.32046628548570144,0.28915151894017743,0.24917531483731548,0.2159873252522191,0.19362072168186328,0.19474842503346013,0.22172852607086124,0.26084330420367907,0.268857602612643,0.2571011730128263,0.2594393642930779,0.27738874866008656,0.2674789171709233,0.2570604416994935,0.25695681411564175,0.25695681411564175,0.2569564604589001,0.25278093906911314,0.2165457035793037,0.16859225106703546,0.12236580308414036,0.07381665507811253,0.04130371635844288,0.025702880565037667,0.055656696334605904,0.10363145664106721,0.14960696901077108,0.18100145342334129,0.22901576504822563,0.2892508347255265,0.3398207964994473,0.3693769066703263,0.4133908676731739,0.4662299430304784,0.5266190557236596,0.5870233978438559,0.6474277399640527,0.707832082084249,0.7682363750854524,0.8278604067579871,0.8532985945185763,0.8033448305020574,0.7602317424621292,0.7063428157169658,0.6633113788663492,0.6053956390697026,0.562968221994522,0.5087309257229631,0.46802025653468515,0.4338224711536429,0.40958992340854605,0.39518143971690867,0.38646002058498663,0.38639469008749083,0.38639469008749083,0.3863913298405399,0.3818496405050351,0.3618378549185066,0.34393020391609097,0.3277725085051326,0.3158377843090796,0.2958982759893667,0.2676936256845126,0.24002790254200823,0.21795063531144088,0.19284175350275223,0.1731483238794933,0.17017873953644447,0.15399013829987807,0.14980064847101993,0.1664883755255766,0.18811062568241654,0.2180778341512748,0.24739224242082614,0.27121359195129147,0.30861012274159805,0.33902932079111103,0.3703216272277574,0.4048841952922806,0.4184896152906399,0.4295135501376959,0.42954064874477416,0.42905205725316486,0.41286584112458513,0.40797321829510214,0.4079643091691816,0.40342297349041845,0.38709784273571257,0.3863947392064828,0.38639469008749083,0.38639469008749083,0.3863943364307496,0.382707681598927,0.3658607183060596,0.36482166163985763,0.36370776458173104,0.34573128160764366,0.3432511656571853,0.34324873143020795,0.34324861354462755,0.3421347852530898,0.32415830227900244,0.32167818632854406,0.3216757521015663,0.3216757521015663,0.3216757521015663,0.3216757521015663,0.3216757521015663,0.3216757521015663,0.3216757521015663,0.3216723918546154,0.3171036039120332,0.2860469945277564,0.24842730753405506,0.2180871977548473,0.19398274291480888,MI
0.9754748320053506,0.9353378599847435,0.8942720469428447,0.8561166035236702,0.8125772895385772,0.7688117468274225,0.7263093016919999,0.697134576652142,0.6628375919583576,0.6193995517806234,0.5756333001493996,0.5325829225747469,0.49532649802317263,0.45288191044496484,0.4091256707022093,0.3674219699112462,0.3297887262980521,0.2864232976345358,0.24666719654696312,0.20731553767932542,0.16641158840825065,0.1522426488997357,0.1582180938863058,0.17180529144660994,0.175006364926926,0.15867764075412705,0.13889067014885703,0.1412118148633379,0.1431886899325685,0.14319630552625018,0.1431892098824119,0.14127608432474492,0.13795061334486092,0.14080782106222012,0.13506073849242495,0.140091083312321,0.1502397478512758,0.15849934437400726,0.1626841316446579,0.16270232258398876,0.14525856610476606,0.11985730289182439,0.09323365303433184,0.0641480559639136,0.0366569472999041,0.015223369411897503,0.0020155215471966414,0.012729113519638569,0.027316203911569747,0.037988349529806564,0.04442539139372381,0.05651975120365771,0.0638826082213082,0.08426758701565507,0.11426003752168534,0.15058281691229425,0.18986962467305846,0.23328112295653525,0.27120865183198917,0.3125344342265379,0.35436468464842696,0.391918168531876,0.43527492859807193,0.47777454821397836,0.5150147146185415,0.558026055534298,0.601787991971737,0.6438465649835121,0.6812373779088656,0.7245405806189318,0.7678403931902751,0.8053294303352225,0.8472949700361112,0.8909827621818001,0.9304305980070637,0.9697773458787302,1.0,0.9889995263611024,0.9519164136353568,0.9125108129444386,0.8728810793375774,0.8291860075677677,0.7880274713090105,0.7570062365239121,0.7180242012680991,0.6907810172201283,0.6530173717338417,0.6093382112723971,0.565576915855919,0.5235459164275484,0.4860929308996631,0.4428228616425325,0.3990561946504576,0.3552893634396712,0.31152290925985615,0.26839445836741205,0.23111053336628018,0.19045405868680465,0.1568404800211649,0.15049814238221848,0.15408723349536646,0.168819942671254,0.17404674161784883,0.15880569299168057,0.13574635785313327,0.11935645595895572,0.12311803987139336,0.12750395642819634,0.1340054087449436,0.13464825412491654,0.1364012990002188,0.14030146027852086,0.13349858381004642,0.12664928054222924,0.1217528282115703,0.12348463143207988,0.13258649469456185,0.1425742319652874,0.15224497082337085,0.15963669146447157,0.1515009044979514,0.13193114403859796,0.10759415509151649,0.08225002007855298,0.055113044969223424,0.025612371511330556,0.004114367676036901,0.0,0.014388731293283996,0.029235435763426354,0.04189227423175934,0.05127017496852693,0.06288427394237628,0.07852815794342294,0.10110925228958623,0.13129541851030857,0.16722764529254697,0.2037526584720346,0.24141101189455005,0.28187369078704894,0.32560840894040166,0.36937524015118806,0.4128760510283829,0.45080357990383724,0.49213432964429615,0.5355132116310257,0.5731104036271586,0.6148795641456026,0.658636072696061,0.701025515336207,0.7382981980347927,0.781387612268341,0.8251492489700896,0.867071455864262,0.9045620240145196,0.9476900938179114,0.9801241760649266,0.9776108657978853,0.9460950134339177,0.9046288818225134,0.8609145259178463,0.8208837977884382,0.7817997575263704,0.7381233697777001,0.6943565385669133,0.6505906920328719,0.6076964610938023,0.5705050691302727,0.5278399017998172,0.4840746861636849,0.4408290342839274,0.4034913189972973,0.3613438802844866,0.3204501827162525,0.2821427962679317,0.23857781354424046,0.19499837556780864,0.16356001586796132,0.15490700790095668,0.15155219224587846,0.14344147766860238,0.13912407240551694,0.1495814509171609,0.14552894418241258,0.14320715539769613,0.14319630552625018,0.14319630552625018,0.1431834324570389,0.1406606828793091,0.13489730074020256,0.13434745451692254,0.12817792052578714,0.11980861573561441,0.1175500943074217,0.1183966094071236,0.1298168841249998,0.13955051673624408,0.14308192427845,0.13782599492796077,0.1173058263050244,0.09019863551193552,0.06175612448301093,0.03805840721647513,0.015583844399527758,0.010038334480860556,0.021820648374871965,0.03206163337820178,0.03997737723101635,0.048908486793355355,0.05679562751064404,0.06871752860378622,0.09806378728334919,0.13437698285030142,0.16910255772282556,0.20678829429933687,0.24716199902777003,0.2896274807101362,0.3268676471147003,0.3698016396742172,0.40915784575482506,0.4489139468423964,0.49251465347496515,0.531277148620849,0.5652138685181944,0.5986916644961187,0.6418229671770945,0.6800543000014858,0.7210383773123323,0.7647859221244993,0.8084535798025856,0.8473687383674924,0.8875726384929976,0.9307505105263538,0.9618924198416505,0.961675444569563,0.9302820390569879,0.8870310861354231,0.8432643780886706,0.7994975468778831,0.7557307156670978,0.7119638844563103,0.6682227529735507,0.6274986799849143,0.5890393505074474,0.5454486990451566,0.5016818678343711,0.4580817802358028,0.4197103918208722,0.3789172276664827,0.33681144993823864,0.3063263434933088,0.2730544573311726,0.23444522790274536,0.19441778911053453,0.1587637868119567,MI
0.45381866397625625,0.4452509662163826,0.4355127760242974,0.4430454791805718,0.4453439553703169,0.4376776075025348,0.4107745011614887,0.3698960589386573,0.32004501791125106,0.2643047817685753,0.20841336125520327,0.1524320478949619,0.09646747675548539,0.041219033641646696,0.023327450260024474,0.050017220653623795,0.07881129707328594,0.10903840038460055,0.11237639856028991,0.09729462043508175,0.07745229407019494,0.09826718229346465,0.16143232437426747,0.24180070791750152,0.31200758757423985,0.3888384008459953,0.45870594842399903,0.5363846906131706,0.6201635779307209,0.693964784363962,0.7674659095124001,0.8453757315791641,0.8947852142753634,0.884242411507751,0.8260690186675941,0.7587314045875582,0.691070790590746,0.6166745905263484,0.5489475240771546,0.4858447252748612,0.44819594247028105,0.4453901880398714,0.44350302882014425,0.42502207442432116,0.4064852169434854,0.41717312755430624,0.42457141867095594,0.4261551239035337,0.4427604696257168,0.4586121498109361,0.4502287010098085,0.4453660886314528,0.43767618639644246,0.40053214480362254,0.3506058142236612,0.29393049186987596,0.2310953651960661,0.16308123524225637,0.10104661009446003,0.05027128536939207,0.013582518577975211,0.0370398646527379,0.06504553945825142,0.09149184608502381,0.10884106241773894,0.1022412508157644,0.07547778428107854,0.1124116246733613,0.1783767520453865,0.24587482408714845,0.318265334809273,0.3863259374026513,0.4676378190562822,0.5353904802936547,0.6162024862887363,0.6983804775311215,0.7660483649066836,0.8470816601274538,0.9207226426020441,0.9712898601413906,0.9686271666114523,0.9075660623083337,0.8401736899958019,0.7652681460232338,0.6941281763824461,0.610805507836051,0.5400616978151338,0.4735960181012411,0.4464545389601393,0.4574592155242603,0.46570197261361024,0.45182159616217854,0.4454090219921527,0.44485565346047284,0.42846411976247234,0.3938897304835689,0.34827232906643957,0.29805473878182553,0.2437068899696082,0.1875786136122919,0.12691360113671024,0.07546284810991954,0.02378187555600464,0.019436496881106713,0.04649845507290973,0.07432377688464298,0.09041435761188144,0.0753830906611146,0.07970892628811477,0.12815762093595273,0.1902253251836381,0.26102595154479147,0.33411948866273855,0.3871900356009723,0.44255629011131736,0.5249232919786158,0.6017243784612982,0.6723293883544255,0.7559258570078149,0.8398434792238518,0.92338986509768,0.9804962819369063,0.9688060433948724,0.9105283663687915,0.8435442196023573,0.7674516851996418,0.6998573365519958,0.6206176369832699,0.5539218797126977,0.49512077329102455,0.4698703924591876,0.4845789390531854,0.48914335794764696,0.5055653737036918,0.5064770970253738,0.4825463268861334,0.45803929213401684,0.4269695887965512,0.3769405672881323,0.3166323003915976,0.24767006989636897,0.18587530355274184,0.12975158755773064,0.07381104756191492,0.02161760955361025,0.0,0.03456130286848902,0.07204418895696518,0.10037909144800006,0.11198691602134447,0.09657240069920814,0.0703865321170527,0.06706247590089731,0.12591886346671766,0.193842368940921,0.26167069255244435,0.3305644223753532,0.4131309514280712,0.4823353607630776,0.5608172600515635,0.6445806501290763,0.7174817617337728,0.7918529044078411,0.8692385257598407,0.9289161354283779,0.9333892321984365,0.8760921216255957,0.7946155429601047,0.7273517546833523,0.6554590755281668,0.5845983084487094,0.5194854791118462,0.4740293749894855,0.4836116160335333,0.48120970109116046,0.4667337558351359,0.46616564010360717,0.4666308951352409,0.4805039490524372,0.4918609520254207,0.5059314016220018,0.4912650839181514,0.4837341124557768,0.46644006426977835,0.4405195801074906,0.3953692923995482,0.33465091636580846,0.27495777250201003,0.20791243943516013,0.1460434286079404,0.09573113277395562,0.04959694445914131,0.04530923079704863,0.07319323938346889,0.09090690600694096,0.09220071040048561,0.09026759826678443,0.0859859598961279,0.13858372349435788,0.20590615964718406,0.2783559871897521,0.34627927046693596,0.415569371951773,0.4928008014133973,0.5748311512625386,0.6424565041563737,0.7237459078077424,0.8055741048390201,0.8731131731268151,0.9523396184429727,1.0,0.9882606843502808,0.9259556658598571,0.8583245542579516,0.77547972877497,0.6929419393538327,0.6256317142684491,0.5537994415776519,0.5004551915365423,0.468909883200872,0.46616717287034826,0.46616564010360717,0.4661636891171814,0.46401426003146984,0.44757085552365883,0.4389152449952167,0.40296589339402633,0.35844404743091784,0.29815363916368964,0.24180097865422745,0.18582431692628543,0.12915480947604197,0.06741361755557707,0.0164801050961616,0.002464221699151281,0.03344419592281378,0.06402231203567021,0.11391365377962837,0.1326553821038572,0.129898564853963,0.11251789863891126,0.08653573185672281,0.08213588292410323,0.13920847947228188,0.2145567766733376,0.29100230017547135,0.36162609530564893,0.4325399224545774,0.5086452347368655,0.5842990796800862,0.6559717365799442,0.7395581819032118,0.8146595253110189,0.8864505700208629,0.9483906529903106,MI
0.6760207866440098,0.6211360258713472,0.5599120739809931,0.49867957888239456,0.43745037607986914,0.3786266156426086,0.3312593493258431,0.27115663476316376,0.20992824353434036,0.1512488538714214,0.10389816768504456,0.06069433035219429,0.09986755100918288,0.13043606525502005,0.13334398280645798,0.13859583269418518,0.15138339005933554,0.16735845278228334,0.18394629620283132,0.17993767616950018,0.17884739793978266,0.16847235962550444,0.17618691873166048,0.16896067617103805,0.1346809834646323,0.09971205897132673,0.09089275573114142,0.11041809793805513,0.12942734160055736,0.12486515715750501,0.11601180262267263,0.11592528677777603,0.11595061359414371,0.12284664941790258,0.13457368102839462,0.14879932594889844,0.15550499230300874,0.16766223184001383,0.16140345427549052,0.1505597947942663,0.138558099885989,0.12212034057886534,0.09948536548871267,0.08436690214343256,0.07387964264050684,0.06402938722940554,0.07436732825094738,0.081249736466658,0.09192729141976441,0.09958848447299617,0.11349480872239948,0.11987814678872866,0.13943371578950403,0.17787494539603577,0.22669931693296608,0.2776552852235583,0.32554256865449727,0.3731761607969104,0.42407204629110185,0.47029603492444627,0.5188305589721294,0.5795720736881935,0.6400453040896039,0.6872902435668662,0.7249306304698795,0.7625712777508284,0.8130627660290988,0.8591920093282157,0.905388071140178,0.9544625821371024,0.9918940475454079,1.0,0.9560697906241336,0.9022442427970381,0.8509790598145801,0.7898923488546399,0.7291039092415748,0.6801095190967303,0.6235899219711842,0.562369565423078,0.5011370703244786,0.4401138698853573,0.38940407217451734,0.33482284190306544,0.2736143209781803,0.21238182587958176,0.15114965215632203,0.09229295145426608,0.08893954675459126,0.11379806744260046,0.11617840218425446,0.1278724668214104,0.13803748386491632,0.15029565930317146,0.15074123401757777,0.15388603743057372,0.16737814548257868,0.16777193802052226,0.15312971589260327,0.11930128517267446,0.08681574795892777,0.09734369668470766,0.11565068533163458,0.12871284097491387,0.12620349663742036,0.12899557721501065,0.12560059994925332,0.11606946810813934,0.12192523908479025,0.13305056016298789,0.13564788639987668,0.14950990588784174,0.15707673380599507,0.16192343082717287,0.15092917403543504,0.14452417334679657,0.12489902589545654,0.1136311421857421,0.09547466366821356,0.07905894780900358,0.05145159377250508,0.02937402885911844,0.02404638045366081,0.0,0.0015655236557958752,0.01135981536820907,0.011482699058218415,0.013092642647914321,0.03084828242466342,0.06359505091993967,0.11851067169965601,0.16466772548600916,0.21016949632266302,0.2556191964554353,0.3006126944796632,0.34363373199271807,0.39849556329022207,0.4468179164702355,0.5034254159481377,0.551288690305082,0.5990093774766878,0.6499455169572337,0.6991300229597108,0.7460601362024217,0.7956701002943474,0.8256837566763657,0.8050058070770683,0.7506506189601105,0.7007266134833268,0.6452906616689948,0.5841706314728028,0.5321035506568843,0.47897366016979737,0.41778715224712215,0.35655465714852363,0.29537717199399793,0.241199666731565,0.19010930007766635,0.12903192727951884,0.06830934230705843,0.03861909041578793,0.08310364706277218,0.09750974052853367,0.08805915686727239,0.10896024377840385,0.11986374525113197,0.13504149916127028,0.14938867279842816,0.1431134563470562,0.14699381832446612,0.15048320623259048,0.13908750396777858,0.11577895055543408,0.08568927989988762,0.07680158705419426,0.0920564556573984,0.11388011030428435,0.11592384488401164,0.11559524044961922,0.10408828014060933,0.09853594301145074,0.09851805572967942,0.09851805572967942,0.09851969182231057,0.10191362028106354,0.1152665665283581,0.11693143056238942,0.1307271741016467,0.13326575017791864,0.12579275119496236,0.11560751526983948,0.10226201494975218,0.08197659499339371,0.06408720987599148,0.049027434616858656,0.045186999364486,0.025667166625061633,0.011716209084437157,0.011505198341582812,0.018034360091176094,0.02866642002573938,0.029596808921114715,0.04735004510075891,0.07101645583903515,0.10954877786927009,0.15563460878314617,0.20521197791612744,0.2516304899462276,0.297944087549046,0.34374932173759065,0.39108825179074236,0.44826540127288217,0.49577970531276216,0.5440229626595232,0.5951448022333352,0.6436210379673906,0.6906432852389148,0.7411367625204197,0.791278102564394,0.8382231772514332,0.8777326992168315,0.8590932202158399,0.8066705363669069,0.7591466715727417,0.7006021540616687,0.6394478110480231,0.5864762626121696,0.5342275496686968,0.47769365022964605,0.4425138884992261,0.3857068926389857,0.3356049652354969,0.2803521680374961,0.21913992734531318,0.15823077014883413,0.10858017744508874,0.07680138570637585,0.1003670443799014,0.12304429143181528,0.1332187480076148,0.13670239469591783,0.15527616745821327,0.1677933610645317,0.1735330352346729,0.18520403936389274,0.18553628256661758,0.17825951442966437,0.14139226127515236,0.1064837031324366,0.10497918668288309,0.13006903256628366,0.148935308304468,0.1636420570420749,0.15508367270439694,0.1507488439784903,MI
0.13456918219262093,0.14249256324984216,0.14268147569031697,0.15740738906624507,0.1447133456294427,0.10908748353203901,0.0943208093746235,0.09345005765762116,0.07525142503195159,0.0700994509186299,0.07008973872271129,0.0656791383724471,0.04683261593034871,0.04595644044153513,0.04595617828350429,0.044745757497538285,0.026605548386053002,0.04925285350084385,0.08039377197458153,0.11603009804050224,0.16331085090791486,0.2188312755196664,0.27194135142400455,0.3256022988397458,0.3922919625030348,0.4471316362580051,0.5148012359426888,0.576016430152472,0.6368388283531221,0.7088183938734689,0.7630261505647082,0.831526103862636,0.8995283529570601,0.9490505355871157,0.983118010187618,0.962398222280787,0.9117001625983274,0.8406328044956988,0.7762148377972702,0.7185942707914625,0.6457799433917497,0.5731725181685192,0.5177979772693639,0.4509492995067843,0.38105858423768435,0.34338185657751197,0.2834951052270096,0.23034244257438097,0.15842334724470053,0.08543872721849821,0.017561875087893863,0.022407860307217753,0.06210321819886255,0.07007642532496972,0.06907233464293361,0.053299792461637185,0.0682009825657679,0.07013304284272426,0.07954762691361905,0.09716960075402392,0.11673485155585128,0.12849266099456047,0.1526227366390147,0.17693097052374185,0.190381457479452,0.1752098553606034,0.13931453034611785,0.0980433323414287,0.07143700830711364,0.09354116381815247,0.11721068718135186,0.11837806816843699,0.11837831224660356,0.11837831224660356,0.11837831224660356,0.11837831224660356,0.11837831224660356,0.11837831224660356,0.11837831224660356,0.11837831224660356,0.11837762521176431,0.1159249132006237,0.09573183850380751,0.10020543911426971,0.11534880869168296,0.0954252488682319,0.09423768831158075,0.09423764311192073,0.09366158380264045,0.07572967520168605,0.07737919702400031,0.09390229533053862,0.09423768831158075,0.09423768831158075,0.09426191654265459,0.1025512133497104,0.12101969046180194,0.15740249295102338,0.16941059320346064,0.18892848190449207,0.1907892477369133,0.18560858779484857,0.1672289194297889,0.1536093141162711,0.13691742788121797,0.11884415168462725,0.10472040259362458,0.09406543625818342,0.08022185862697828,0.08134580798086821,0.09232539654232319,0.07314090551119978,0.06320447835561716,0.046417435839897436,0.04682177497649587,0.07035132627472995,0.09819646857173225,0.136240946532876,0.19186328198406777,0.24067044304610175,0.2974574967997894,0.35225664707446036,0.42346752445388347,0.4766200967071912,0.5365068480576944,0.5741835757178659,0.64407729224442,0.7158652509006913,0.7685006512726549,0.8387560567759058,0.8965044598837331,0.9589014075668851,0.9941736154613245,1.0,0.9571960842106781,0.9046537149795064,0.8326631622853391,0.7638527118252707,0.7099025257238116,0.6378277378602126,0.5648467382804556,0.4966527260188949,0.44218739873787793,0.3700088158516648,0.29701892936577323,0.22421039421198063,0.1641804116188217,0.10215178353689369,0.040503166024499215,0.055889516955808016,0.08838734920959856,0.0942253666504067,0.09429643203102511,0.10575371144991541,0.11821835558796678,0.11837831224660356,0.11837831224660356,0.11838048183030558,0.12325591048027595,0.15432865468478774,0.16655018228009855,0.16444795261118728,0.13427233074018474,0.08595728682051895,0.04812285895105228,0.059955478411878094,0.07577560776490255,0.09371446533889527,0.09423766119178456,0.09423768831158075,0.09423768831158075,0.09423768831158075,0.09423768831158075,0.09423768831158075,0.09423768831158075,0.09423768831158075,0.09423768831158075,0.0942322361604826,0.09028396445909781,0.07105108613233035,0.07009706437655794,0.07009706437655794,0.07009706437655794,0.07009682029839137,0.06893926296881592,0.050334367219670106,0.055511057058792446,0.06985580795875768,0.07009706437655794,0.07014356066464611,0.08047793032183659,0.09773141162932042,0.11692966238946134,0.11837796872918416,0.11837786928993088,0.11663881394006159,0.09704475389284628,0.0793229506534856,0.0630829083699549,0.04639095372825208,0.04395253445371905,0.024294960834977175,0.01970687064075438,0.0,0.010948419321171965,0.021810726916962953,0.03550178824305705,0.04588905339107452,0.05163410155999193,0.07067294592180451,0.09835150509110413,0.1464845396748764,0.1952140505187554,0.2576718070065338,0.3103437850128774,0.3792524070321024,0.4320773156160458,0.5026409218189913,0.5756296963932357,0.6466003190182086,0.6955030517879175,0.7309675948876837,0.7951635274885529,0.8597407988508845,0.9146686122698746,0.9557886327951097,0.9583199377918916,0.9213565352184743,0.8579336073180706,0.8032126259128782,0.7309821455153598,0.6581821682309537,0.5983502895396651,0.536102160093213,0.46316322350681194,0.3901884689362163,0.3235355521709202,0.2677823719410073,0.1953447715747343,0.12417323562329718,0.07096954196462635,0.03812129543211418,0.0777336954880008,0.09410401297572468,0.09423768831158075,0.09424007485365271,0.0993920489669744,0.11759068159264396,0.11846143330964631,0.13216761486877804,0.14254080827979454,0.15783409709482044,0.19357825475196488,0.214442388472877,0.2069910449577561,MI
0.13456918219262093,0.14249256324984216,0.14268147569031697,0.15740738906624507,0.1447133456294427,0.10908748353203901,0.0943208093746235,0.09345005765762116,0.07525142503195159,0.0700994509186299,0.07008973872271129,0.0656791383724471,0.04683261593034871,0.04595644044153513,0.04595617828350429,0.044745757497538285,0.026605548386053002,0.04925285350084385,0.08039377197458153,0.11603009804050224,0.16331085090791486,0.2188312755196664,0.27194135142400455,0.3256022988397458,0.3922919625030348,0.4471316362580051,0.5148012359426888,0.576016430152472,0.6368388283531221,0.7088183938734689,0.7630261505647082,0.831526103862636,0.8995283529570601,0.9490505355871157,0.983118010187618,0.962398222280787,0.9117001625983274,0.8406328044956988,0.7762148377972702,0.7185942707914625,0.6457799433917497,0.5731725181685192,0.5177979772693639,0.4509492995067843,0.38105858423768435,0.34338185657751197,0.2834951052270096,0.23034244257438097,0.15842334724470053,0.08543872721849821,0.017561875087893863,0.022407860307217753,0.06210321819886255,0.07007642532496972,0.06907233464293361,0.053299792461637185,0.0682009825657679,0.07013304284272426,0.07954762691361905,0.09716960075402392,0.11673485155585128,0.12849266099456047,0.1526227366390147,0.17693097052374185,0.190381457479452,0.1752098553606034,0.13931453034611785,0.0980433323414287,0.07143700830711364,0.09354116381815247,0.11721068718135186,0.11837806816843699,0.11837831224660356,0.11837831224660356,0.11837831224660356,0.11837831224660356,0.11837831224660356,0.11837831224660356,0.11837831224660356,0.11837831224660356,0.11837762521176431,0.1159249132006237,0.09573183850380751,0.10020543911426971,0.11534880869168296,0.0954252488682319,0.09423768831158075,0.09423764311192073,0.09366158380264045,0.07572967520168605,0.07737919702400031,0.09390229533053862,0.09423768831158075,0.09423768831158075,0.09426191654265459,0.1025512133497104,0.12101969046180194,0.15740249295102338,0.16941059320346064,0.18892848190449207,0.1907892477369133,0.18560858779484857,0.1672289194297889,0.1536093141162711,0.13691742788121797,0.11884415168462725,0.10472040259362458,0.09406543625818342,0.08022185862697828,0.08134580798086821,0.09232539654232319,0.07314090551119978,0.06320447835561716,0.046417435839897436,0.04682177497649587,0.07035132627472995,0.09819646857173225,0.136240946532876,0.19186328198406777,0.24067044304610175,0.2974574967997894,0.35225664707446036,0.42346752445388347,0.4766200967071912,0.5365068480576944,0.5741835757178659,0.64407729224442,0.7158652509006913,0.7685006512726549,0.8387560567759058,0.8965044598837331,0.9589014075668851,0.9941736154613245,1.0,0.9571960842106781,0.9046537149795064,0.8326631622853391,0.7638527118252707,0.7099025257238116,0.6378277378602126,0.5648467382804556,0.4966527260188949,0.44218739873787793,0.3700088158516648,0.29701892936577323,0.22421039421198063,0.1641804116188217,0.10215178353689369,0.040503166024499215,0.055889516955808016,0.08838734920959856,0.0942253666504067,0.09429643203102511,0.10575371144991541,0.11821835558796678,0.11837831224660356,0.11837831224660356,0.11838048183030558,0.12325591048027595,0.15432865468478774,0.16655018228009855,0.16444795261118728,0.13427233074018474,0.08595728682051895,0.04812285895105228,0.059955478411878094,0.07577560776490255,0.09371446533889527,0.09423766119178456,0.09423768831158075,0.09423768831158075,0.09423768831158075,0.09423768831158075,0.09423768831158075,0.09423768831158075,0.09423768831158075,0.09423768831158075,0.0942322361604826,0.09028396445909781,0.07105108613233035,0.07009706437655794,0.07009706437655794,0.07009706437655794,0.07009682029839137,0.06893926296881592,0.050334367219670106,0.055511057058792446,0.06985580795875768,0.07009706437655794,0.07014356066464611,0.08047793032183659,0.09773141162932042,0.11692966238946134,0.11837796872918416,0.11837786928993088,0.11663881394006159,0.09704475389284628,0.0793229506534856,0.0630829083699549,0.04639095372825208,0.04395253445371905,0.024294960834977175,0.01970687064075438,0.0,0.010948419321171965,0.021810726916962953,0.03550178824305705,0.04588905339107452,0.05163410155999193,0.07067294592180451,0.09835150509110413,0.1464845396748764,0.1952140505187554,0.2576718070065338,0.3103437850128774,0.3792524070321024,0.4320773156160458,0.5026409218189913,0.5756296963932357,0.6466003190182086,0.6955030517879175,0.7309675948876837,0.7951635274885529,0.8597407988508845,0.9146686122698746,0.9557886327951097,0.9583199377918916,0.9213565352184743,0.8579336073180706,0.8032126259128782,0.7309821455153598,0.6581821682309537,0.5983502895396651,0.536102160093213,0.46316322350681194,0.3901884689362163,0.3235355521709202,0.2677823719410073,0.1953447715747343,0.12417323562329718,0.07096954196462635,0.03812129543211418,0.0777336954880008,0.09410401297572468,0.09423768831158075,0.09424007485365271,0.0993920489669744,0.11759068159264396,0.11846143330964631,0.13216761486877804,0.14254080827979454,0.15783409709482044,0.19357825475196488,0.214442388472877,0.2069910449577561,MI
0.3216757521015663,0.3216757521015663,0.3216757521015663,0.3216757521015663,0.3216757521015663,0.3216757521015663,0.3216757521015663,0.3216757521015663,0.3216757521015663,0.3216757521015663,0.3216828583065321,0.32778173457552695,0.342891147249889,0.34324873143020795,0.34324873143020795,0.34324873143020795,0.34324873143020795,0.34324873143020795,0.34324873143020795,0.34324873143020795,0.34324873143020795,0.34324873143020795,0.34324873143020795,0.34324873143020795,0.34324873143020795,0.3432483777734663,0.3395402838582413,0.3105557989949923,0.27224201049532093,0.2428779480210146,0.2355982059834667,0.2556322081758511,0.29541734828254107,0.3316882175337734,0.34322163282313056,0.34324873143020795,0.34324873143020795,0.34324853495424046,0.34127709781594096,0.3233864694467541,0.3216766290025479,0.3216754770352117,0.31847361744281644,0.2781965868099223,0.23583377562162822,0.18168060962440036,0.13760227515989198,0.07825862074924395,0.03319973001399479,0.0,0.007113654100530553,0.046657197581853715,0.09948929444357324,0.15987840713675494,0.22025571584581094,0.27337329813767886,0.3197450310377312,0.37992279628889847,0.4403271384090943,0.5007314805292906,0.5611358226494865,0.6215346158907145,0.6770463351814273,0.7212644611730425,0.7811802118016309,0.8415845539218259,0.901988896042023,0.962270340479388,1.0,0.9693041642725966,0.9106172108724975,0.8502137456532832,0.7898094035330869,0.7296316382819197,0.6832599053818673,0.6301426767467424,0.573452022869509,0.5298948405181463,0.4725008743168715,0.43008283818538384,0.38469978671630667,0.35398797722605657,0.32632001633254326,0.30621430412585493,0.30010987897789043,0.3001027727729251,0.30010249770657005,0.29727345172150965,0.2799046558904821,0.2785298425632754,0.2779101946413842,0.26015830850062205,0.23745648052104196,0.2132103383322761,0.18810692884339542,0.17038637404131407,0.14124295800738462,0.11059416548010859,0.09025793397041104,0.07011753935535081,0.05828233764329527,0.042072098147655446,0.05358931580434989,0.07400667342827782,0.10422488911000949,0.1438507208480151,0.17493182637500038,0.20528134887677219,0.24290347009744995,0.27646723866712364,0.30647948134488523,0.33558589938287753,0.35549207115648107,0.36480054674180273,0.3648217107588496,0.3648217107588496,0.3648217107588496,0.3648217107588496,0.3648217107588496,0.3648217107588496,0.36482881696381453,0.37092769323280983,0.38567952172685294,0.37093012745978804,0.36731136714125023,0.3852807439103727,0.3863945722019104,0.38639469008749083,0.38616811321846223,0.37213550399831874,0.3648487441699908,0.3648005467418036,0.3555073005834961,0.34339065610041475,0.34324873143020795,0.34324873143020795,0.3432484563638529,0.34041941037879164,0.32305049666218455,0.32046628548570144,0.28915151894017743,0.24917531483731548,0.2159873252522191,0.19362072168186328,0.19474842503346013,0.22172852607086124,0.26084330420367907,0.268857602612643,0.2571011730128263,0.2594393642930779,0.27738874866008656,0.2674789171709233,0.2570604416994935,0.25695681411564175,0.25695681411564175,0.2569564604589001,0.25278093906911314,0.2165457035793037,0.16859225106703546,0.12236580308414036,0.07381665507811253,0.04130371635844288,0.025702880565037667,0.055656696334605904,0.10363145664106721,0.14960696901077108,0.18100145342334129,0.22901576504822563,0.2892508347255265,0.3398207964994473,0.3693769066703263,0.4133908676731739,0.4662299430304784,0.5266190557236596,0.5870233978438559,0.6474277399640527,0.707832082084249,0.7682363750854524,0.8278604067579871,0.8532985945185763,0.8033448305020574,0.7602317424621292,0.7063428157169658,0.6633113788663492,0.6053956390697026,0.562968221994522,0.5087309257229631,0.46802025653468515,0.4338224711536429,0.40958992340854605,0.39518143971690867,0.38646002058498663,0.38639469008749083,0.38639469008749083,0.3863913298405399,0.3818496405050351,0.3618378549185066,0.34393020391609097,0.3277725085051326,0.3158377843090796,0.2958982759893667,0.2676936256845126,0.24002790254200823,0.21795063531144088,0.19284175350275223,0.1731483238794933,0.17017873953644447,0.15399013829987807,0.14980064847101993,0.1664883755255766,0.18811062568241654,0.2180778341512748,0.24739224242082614,0.27121359195129147,0.30861012274159805,0.33902932079111103,0.3703216272277574,0.4048841952922806,0.4184896152906399,0.4295135501376959,0.42954064874477416,0.42905205725316486,0.41286584112458513,0.40797321829510214,0.4079643091691816,0.40342297349041845,0.38709784273571257,0.3863947392064828,0.38639469008749083,0.38639469008749083,0.3863943364307496,0.382707681598927,0.3658607183060596,0.36482166163985763,0.36370776458173104,0.34573128160764366,0.3432511656571853,0.34324873143020795,0.34324861354462755,0.3421347852530898,0.32415830227900244,0.32167818632854406,0.3216757521015663,0.3216757521015663,0.3216757521015663,0.3216757521015663,0.3216757521015663,0.3216757521015663,0.3216757521015663,0.3216723918546154,0.3171036039120332,0.2860469945277564,0.24842730753405506,0.2180871977548473,0.19398274291480888,MI
0.8298125318444676,0.8296207042173904,0.8114454208017925,0.8012155150084643,0.8011855373334305,0.8011929484572589,0.8061337331419169,0.8287224847190702,0.8353102125832859,0.8574336610588755,0.8586373183683911,0.8735908098879781,0.8829728922017992,0.8671932517627701,0.885493602251044,0.8651283000920333,0.8607866203795504,0.9028551048753908,0.943039393315817,0.9781855181965726,1.0,0.9779872810298622,0.9729553046019497,0.9717224751150679,0.9485360591233274,0.9443248083846916,0.944203016646008,0.9182694749034574,0.8427514575938524,0.7862701505768186,0.7725777448590287,0.7616878780445706,0.6881630609940181,0.6013024810993457,0.5171389844576906,0.4541221710159764,0.3928752602248684,0.37915211046289876,0.4304486164055046,0.5033715063822601,0.5901877483785505,0.6770790964238156,0.7639699488045384,0.8478222811624825,0.8585141808028851,0.8029561887678662,0.7364013272535272,0.686103523935496,0.6304608897178898,0.5961249125157613,0.5671896624908426,0.5432959128848127,0.5127647539651612,0.4802994127580895,0.44010126942581707,0.39675050736440287,0.35320604851780146,0.3098603788848653,0.26611331610352984,0.204503021580833,0.15083936173580526,0.10776110803227734,0.07644554826911643,0.05726196513069004,0.06235440918293378,0.09882316553810444,0.13002140066214718,0.17408567433475053,0.23997107680668606,0.2985182915411544,0.34740200414158107,0.40454256703269476,0.4624208767636464,0.518524287161167,0.5687918346774481,0.6266858625363376,0.6780728867393115,0.7239619815165677,0.7908125640357362,0.8298353085173593,0.8560553366557118,0.8584390365223094,0.8584395263555047,0.8584357709676667,0.8512257623708779,0.830274569297468,0.8219466347886693,0.801622425684112,0.8011855373334305,0.8011855373334305,0.8011855373334305,0.8013209563886292,0.8148754204558761,0.8297263748078985,0.8298125318444676,0.8298125318444676,0.8300259170967745,0.8453311772943612,0.8583740899206713,0.8584395263555047,0.8584395263555047,0.8584372171418648,0.8532883653224728,0.8171370872763806,0.8013583319430344,0.8036300889981192,0.8363853541995105,0.8798256612858619,0.9069002312308267,0.8877998269888305,0.870422663771909,0.8585021769600703,0.8584395263555047,0.8584395263555047,0.8582631900212645,0.8380400166290451,0.7831325652098391,0.7167268482766183,0.6519472255251708,0.6346598109232291,0.6535069110870264,0.5984029636282022,0.5355344543557656,0.5213949610701647,0.5654238183078659,0.6280614523429291,0.6722800401945621,0.7361301512667175,0.8191952866514454,0.8298162243632188,0.7616607676854885,0.7019346344596915,0.6485596850983066,0.6053061236335129,0.5761948479226291,0.5472449799993138,0.5182918698467462,0.4840427357705739,0.44061355491069687,0.39725203092329675,0.3537148894710631,0.3103640582814373,0.26067157126440144,0.20909780516221588,0.1657077244231573,0.1221822421442269,0.0766815506916938,0.021800826433429954,0.0,0.0008584349218923037,0.028529368335552974,0.07185489928895361,0.11534225970266387,0.1653712470943436,0.240635357577486,0.29919135663701546,0.3479840592371195,0.40516744171959207,0.46304630542856184,0.5209251691375325,0.5788040328465023,0.6366822026251127,0.6924687156270481,0.7433455259595148,0.7941187062168984,0.8375232923648701,0.8810133822218784,0.9137105511967247,0.9187134488514976,0.9426456749585066,0.9249473588455093,0.8901189764148221,0.8870674247254158,0.8870665208665418,0.8870665208665418,0.8870665208665418,0.8870665208665418,0.8870665208665418,0.8870665208665418,0.8870665208665418,0.8872643128794273,0.902219816213929,0.9172850261256071,0.9397379486593023,0.9316978947740635,0.9162034498257752,0.9317788873867769,0.9217834019150066,0.915703395403181,0.9102048242752279,0.8881962103074672,0.8718858135862098,0.8589502480356233,0.8807139550616423,0.9232161740995091,0.927312070834887,0.8987464572891142,0.8869956496057876,0.8693404755759202,0.8584745806835521,0.862197171481605,0.8854926750667804,0.86590513309707,0.8207844878649944,0.7756471299232919,0.7872489816908272,0.8132501787273689,0.7667023421052788,0.6821302833677008,0.5952395709393219,0.5083482228940568,0.42145871755462494,0.33901482760732904,0.29320673408358733,0.30508990342352504,0.3668709878257319,0.4531143272794038,0.5377131023828925,0.6014132564582386,0.685163015512833,0.7720226176728957,0.8399731496445577,0.8131449213684547,0.758740882911499,0.7021333732799624,0.6680813942737682,0.6312241990626299,0.6037203745705568,0.5824060713435584,0.5534868027717206,0.522592650433447,0.486196172454215,0.43114257690868385,0.3808028521373785,0.34886311847301155,0.30575031579171164,0.2542991902294487,0.19703779143081412,0.17102614093863888,0.1501859905883185,0.1445872326619222,0.17464809853208063,0.216346723589238,0.2537819366565497,0.3051865332852506,0.359812000685646,0.40814832373688503,0.46554580417614666,0.5234246678851173,0.581692841331888,0.6565154127134871,0.7168097421775386,0.7674368943687755,0.8232263751634399,0.8662548284285849,MI
0.42963861896506916,0.5065582869248333,0.5680447362776393,0.6399340304234551,0.7060986244991829,0.770605565820647,0.843067374155174,0.9010560556087475,0.956113936329281,0.9673601046756533,0.9197089381928913,0.8567859784740799,0.7811642038079762,0.7075883236712954,0.6401107799573005,0.5570013727642609,0.4935189502988422,0.4153646374931306,0.345266756555187,0.27445285220908744,0.20611451728886276,0.16560112935059745,0.22224722959757326,0.27798904102407995,0.30841849725982495,0.3424811742137619,0.3268616091935508,0.319522546339976,0.3195176697611002,0.318501139000559,0.2977179150030098,0.29074544686039605,0.26789258763012924,0.23466978086412293,0.195585761051416,0.20435415626131803,0.21566329280123409,0.251325528944661,0.28036587376941746,0.30837302908341524,0.3162198968754302,0.29350712673910095,0.29215196504614926,0.29215196504614926,0.29196950861237525,0.27782499639489,0.26492577114993754,0.2771160209203911,0.2842686838643278,0.2663998577918596,0.28726758679264197,0.2921446873339235,0.29215196504614926,0.2921507404234971,0.2885691936408774,0.26195279005809446,0.23756054545320637,0.21032181956282425,0.18224805542226807,0.16076401990960676,0.18878688641167773,0.23578758776415132,0.27788827538517147,0.31434360194602373,0.34046560652351854,0.37346575441936025,0.39206905758650734,0.42589177182948035,0.4289801429023763,0.4289733960318056,0.4239808681279227,0.4026542401247335,0.40139355258220366,0.3864478639567537,0.37518816891215057,0.3953920424519266,0.3853368917878246,0.4039642962209715,0.4679662095975816,0.5301989510367724,0.5906593742175348,0.6544098869875992,0.7262844764858993,0.78743992691175,0.8467147492080223,0.8663005345823667,0.8500461726311856,0.7934916543071777,0.7318803096867903,0.651501597027984,0.5673954476867689,0.4924067616319858,0.4261796268197582,0.3428023648469143,0.2786857436098824,0.20232804064165766,0.16818903881535352,0.22038291028789647,0.28499248987076964,0.32927388540513114,0.36706238994679996,0.3742320803409731,0.37424953933748295,0.37424953933748295,0.37424856304785337,0.3714855447484302,0.34576587901463984,0.3177386321535227,0.28137702937286146,0.23165974632068842,0.2053424867627962,0.19389555123911872,0.2212075446961732,0.26146345663073145,0.30267843537181527,0.31929906969406474,0.3191688611216996,0.30163662038966255,0.28949879881146856,0.26677021657132105,0.2544204034691253,0.23754807828695235,0.23742024885192858,0.23742024885192858,0.23746108228508866,0.24793744381803862,0.2644849569430825,0.2629737979168789,0.2412892357327321,0.23521703697086238,0.21271815748870626,0.19135217249250847,0.16321216567408037,0.12242167021505512,0.0640764522306494,0.046245813695333204,0.06639973928123588,0.10097069524879654,0.13649068311889057,0.18636620901691536,0.2342366539041114,0.2763235017027199,0.3133469925563386,0.3195051638950561,0.3195216309162836,0.325723086269468,0.3461666480300627,0.34639326681513705,0.3264735782292494,0.3372903252730053,0.334245645962147,0.31961655923219023,0.32303678720886797,0.34956654400610176,0.3983414453084668,0.46237198471991814,0.5250739706850016,0.602215160058245,0.6655879244333427,0.742280645602432,0.7992403688394241,0.8625739937375121,0.9263831208852666,0.9439117576993326,0.9034603726800015,0.8386781966391768,0.7680911736555602,0.6907028413704817,0.6265172017208585,0.5452662724878881,0.4831996494191406,0.4022346538550332,0.32750677982224286,0.26110171213362143,0.18825194744586415,0.166692771322694,0.2275432076042092,0.29002229511460254,0.3191318361027573,0.3195178231432614,0.3195178231432614,0.3195178231432614,0.3192064591576509,0.3024399150595558,0.292160796684958,0.28253181003434413,0.24291326709922512,0.1983474284698774,0.1568807642550052,0.16388171457686163,0.20312910776137372,0.2379582933891191,0.26255967068243624,0.2647853838617067,0.2647861069490389,0.2647861069490389,0.2647602885863183,0.25398283708753944,0.21323647045597216,0.22557743914823636,0.23735416729133707,0.23742024885192858,0.23767356601841794,0.25546437869754435,0.26475657585830525,0.26478571984167854,0.2632734488492723,0.24167965110408485,0.21977594222351815,0.1843131331722434,0.1562515795149162,0.11955523683184133,0.07327638659836744,0.03513036332225994,0.0,0.04294951106796585,0.08146763585034744,0.12768842397346525,0.16480007244010686,0.19643519015189614,0.24646513771393508,0.2773401115128946,0.3131195476797455,0.33397536405825257,0.3689413782713915,0.3742409526029915,0.37424953933748295,0.37424953933748295,0.37368749798875545,0.3534194485500626,0.34691538714078085,0.3564447536047517,0.3847702916656637,0.4364494407606889,0.5068363953138721,0.5754772912773118,0.6462911956234105,0.7153220591561595,0.7778087358042312,0.8509024784682264,0.9132246846999896,0.966634074943828,1.0,0.9774199948860129,0.9100309691372948,0.826172546258757,0.7559619568072335,0.6850165766582421,0.6028105333764442,0.5404045864853568,0.4603896884525849,0.39364038969112425,0.3195229161418549,0.2542202227470014,0.19215711334525398,MI
0.012567845427194024,0.019176990384991877,0.029471990119478653,0.03567876807069825,0.042236176314261575,0.056719022185014456,0.0789435344539231,0.10922644112614432,0.1443278197605682,0.18184257992589514,0.2185934434054746,0.26076012016899175,0.3034494535255403,0.3401431833467252,0.38333704985657224,0.42735069601920284,0.4713461724649899,0.5122153296102303,0.5501438067931637,0.5939436529499575,0.6379577422615799,0.6815312848843602,0.7186102243213273,0.7605432712628541,0.8045506991923346,0.84849929203392,0.8877273888847301,0.927195184502783,0.9701054943485157,0.9876042807637329,0.9582128032352868,0.9215853642053933,0.8792523563644394,0.835797603536443,0.7989325430142129,0.7566729508763275,0.7126629376952196,0.6686488483835968,0.624698107821323,0.585161620046674,0.5459988472413986,0.5020558914528421,0.45804180214121915,0.4140277128295966,0.37002486613406527,0.32849290503264084,0.2911326365842841,0.2474347558988419,0.20342066658721913,0.15940676920133523,0.11638246389601647,0.10416651024466872,0.13273403080389,0.1526997725419379,0.16593731542708978,0.17599439945477724,0.19046897996135015,0.20094280754769467,0.18570047898711395,0.16389429501672836,0.15070397033092653,0.15708638444191858,0.15868025884943826,0.15868290548674557,0.15868290548674557,0.1585503582047123,0.15298292392388513,0.14925105792454585,0.1492195051710088,0.1492195051710088,0.1492195051710088,0.1492195051710088,0.1492195051710088,0.14921941310906872,0.1488454739991225,0.13770828673514468,0.1160975886187523,0.09409059424198962,0.07213818456106713,0.05289606126118773,0.032550276037897286,0.009373523453239052,0.0042055631790636205,0.012488101558481457,0.023089985830778925,0.03210497800558554,0.04250589298052998,0.04980638916381208,0.06403427078014867,0.08668676630620298,0.11658678360355479,0.15013878794282887,0.18908913681387451,0.2267631817809681,0.26982460812997977,0.3064972138418296,0.34908506513824333,0.393048571331575,0.43251968908911964,0.4717376038073209,0.5156757656327462,0.5596898549443694,0.6036859703969566,0.6445803866317648,0.6824870000824186,0.7262828118751239,0.7702969011867471,0.8143062174152327,0.8564175924516233,0.8933724218070029,0.9368855989776428,0.9787434097205758,0.9962876459026293,0.9716852013938091,0.9323923178808631,0.8903019363455114,0.8533543712279812,0.8098576152414259,0.7658435363322824,0.7218305672832477,0.6787877440092402,0.6421771558891995,0.5992497784106363,0.5552364900899036,0.5112224007782811,0.4672083114666581,0.42319697208085794,0.3808217551139226,0.34402433207574834,0.3006151444058256,0.2566012652242806,0.2125921530176118,0.17053687883057145,0.13355249182105688,0.09681345593887647,0.11348795473678952,0.14228542569613967,0.16295155359036384,0.16960625933390583,0.1849566836855452,0.20005304670285318,0.2100437822097565,0.19304983426576694,0.16685707817892226,0.16005723208174305,0.1672793522874796,0.16814565607646026,0.1680862514842132,0.16369208574773753,0.15875825915098107,0.1570759784425928,0.1498374164492371,0.14921974442802832,0.1492195051710088,0.14928124360569406,0.15402368670281708,0.1586149639474559,0.1583096859902473,0.1514227085479649,0.14572506715433198,0.12705445202169385,0.10505698066235514,0.08304994236714625,0.06104284743228616,0.039035843060291286,0.0170682623952938,0.0,0.0022661980254239378,0.010990181772898122,0.021670199350001473,0.030496089745386312,0.03927682501288188,0.051610569883604684,0.07495476986112393,0.10314928346436014,0.13804689658589697,0.17341373994857845,0.214043263717679,0.2552023154502725,0.2928629619127836,0.3366133871094923,0.3806213700373102,0.42244919931432,0.45957576035050685,0.5032064485851608,0.5472204333518698,0.5910400003130167,0.6288695196259915,0.6698160680162673,0.7138133902826231,0.7578224640928068,0.7998822853547645,0.8368683386521094,0.8804064892072176,0.9244069357135674,0.9654703669513305,0.9989852882850556,1.0,0.9638102107339757,0.924674959121992,0.8852192909940615,0.8412538478678782,0.7974197096163302,0.7592962254333253,0.7186509358251096,0.674660890937123,0.6306468016255007,0.5866327123138779,0.5426257559820089,0.5007269326692265,0.4636260975123536,0.4200397553831232,0.37602566607150045,0.3320115767598768,0.28799748744825404,0.2440000978108101,0.20304641024113068,0.16522347113942204,0.12140793953493079,0.08134085981687478,0.08817549471784125,0.12035986909501539,0.1469291286175185,0.1589778316181889,0.16817087236548267,0.1830562539325411,0.1972825886474494,0.1960913538219613,0.16851003453173163,0.14593541926610842,0.1485986879599277,0.14921929348055918,0.1492195051710088,0.1492195051710088,0.1491873037700484,0.14546498800866248,0.1398371152392659,0.1354280378646402,0.13038074922168863,0.13029270453953545,0.13029270453953545,0.13045590992873946,0.1363101425244524,0.13870552056778407,0.1293874589973789,0.11600570124399323,0.09829979554621171,0.07277523010214448,0.05000300550559822,0.028011512830331542,0.008551571028145633,0.010383728727948016,0.036618308162140956,0.02765289438606855,0.009022692755811912,MI
0.44187880279126057,0.4894352635200083,0.5435739425140702,0.5983652420762358,0.6590195575573365,0.7228043794622065,0.7767690663671325,0.8388644401829985,0.8925514172451012,0.9155341757924336,0.884580847722634,0.8254787751892119,0.7678652896723528,0.7097700230349737,0.6454529841999701,0.5900576072525698,0.529525132316512,0.46958676875977057,0.4137017040244606,0.34919218070143243,0.28536164844923606,0.23126950777524913,0.17088661390668136,0.16086809397783508,0.21541072534047023,0.2711198928113516,0.32665197208747765,0.3607622885307391,0.36060020272563786,0.33657364347623053,0.31308742279195734,0.31910701533381935,0.2956940515966755,0.26169492289924134,0.27491162263600444,0.30779980154445763,0.33653182228069767,0.3468877563827415,0.32517468567994934,0.30805397380162924,0.3005031995984839,0.2783041472930301,0.27842451775239274,0.29042850323518854,0.2809989033892166,0.27519027563734166,0.2500352148345719,0.21192845583283004,0.16921419581335506,0.1260393184091173,0.08422422179941691,0.04430510164870993,0.005351592334188027,0.0,0.04046539421300732,0.08627915093183569,0.1253612295886941,0.16415776835941687,0.20235976741027972,0.22801427098553217,0.24349551771266453,0.2703682590253784,0.29494841346024625,0.3206104408712953,0.3449865885595078,0.3856432755918737,0.4312363735361404,0.48702019400192986,0.5407830716258091,0.6035767583061329,0.6634146469032305,0.7194342877386788,0.7839035752101187,0.8440036774082067,0.8997539776606818,0.958688909734922,1.0,0.9911613815578719,0.9365515566670748,0.8817551732491555,0.8174956654407581,0.7527261649836041,0.687956664526451,0.6231872439978088,0.5588745066277174,0.5038856579006477,0.44285256396547634,0.37809410941813804,0.3136039401417352,0.25763129312146793,0.19773756099360584,0.13425054945294823,0.11514403314304333,0.1684468029796502,0.22303234208484435,0.2751846142005001,0.3060697804138761,0.32490665204812297,0.32696218029515567,0.31612422614444124,0.28364674407420587,0.2477079157167128,0.21250328323011258,0.2181586575209753,0.24987171374552508,0.27579520046866746,0.27966241867563424,0.2885164468763701,0.29984273073569767,0.29853652569389455,0.2972221631699301,0.28751457527681445,0.2705141359714016,0.2390103434209987,0.2423582172834844,0.2675372495729924,0.2772022400984189,0.25865421694425184,0.23920801872057362,0.20167417548683453,0.1647767569104448,0.1217657132410368,0.08073988517165498,0.04555753049245359,0.03482574688194395,0.07006313022396249,0.1127828573957439,0.15183523273469923,0.1861049777023247,0.2116376877780568,0.2515287946993725,0.2806946067115921,0.3026258716893713,0.32675643547740574,0.3410202712862218,0.37865140083692106,0.4198912608920722,0.4710503841911686,0.526808976373879,0.5806471909928232,0.6427104574670484,0.6977166882483772,0.7587213538457198,0.8231026447639813,0.8783195838463529,0.9349301057070778,0.9623546405329799,0.9368423967360453,0.8743667049275001,0.8096243674046746,0.7495947562739707,0.6937782066809381,0.6292782854392684,0.5667572766410647,0.5127693314373687,0.4489538321498947,0.38623590648107253,0.33232561270456085,0.26862990125043584,0.20728602464595447,0.20740145678874855,0.2599853809169663,0.3172639480718291,0.36913866403118556,0.4013003290254229,0.39857751979003453,0.39708969345992173,0.3913085774167304,0.383584467841358,0.3438426117048117,0.3147921711513537,0.34530609330409057,0.3804547034318517,0.39113973174925665,0.38563437700381975,0.3598961527189717,0.33030270120130645,0.2996568317495689,0.3163091577812214,0.34348410397527207,0.3316169902303492,0.31523366827016996,0.3231109802166805,0.3271032925900288,0.3213234055247023,0.3152798461862787,0.31314544872025296,0.2955388370445977,0.26870774876207504,0.22509064991073435,0.17950396200192476,0.14130455493770366,0.09589014290225695,0.06603751330846963,0.087539086113952,0.12773316441940885,0.1618246429758443,0.17741837840810293,0.2198593055679412,0.2583621704740242,0.2814233098088108,0.29401046942290954,0.31073200359624575,0.3264955057822836,0.3536230086095151,0.3939216881550447,0.44356339598123906,0.49593208797474686,0.5582088787065627,0.6158424004975318,0.6739562000888655,0.738631531945936,0.8034010324030896,0.8676654560288615,0.9211914804324444,0.9478821915746432,0.9179091987757331,0.8652225039405077,0.8017156053659122,0.7405103634003076,0.6856529043291686,0.6213791318506159,0.558064404534492,0.5042586139700802,0.441052779802396,0.37674993797990153,0.3218098726392724,0.2607194476815202,0.19598875686589823,0.14148377757773334,0.1649138714781766,0.21803328676750988,0.274939775889512,0.32803387802474404,0.3479084545891187,0.3375611430819645,0.33189502196459975,0.3046223542461419,0.26267992517118977,0.21550555272871907,0.1618964929544382,0.11759123566127361,0.12848156514100806,0.1682250162021841,0.20936879071305237,0.23470813626993436,0.23180955188212993,0.1984019397437744,0.2010252721572665,0.22935328466593718,0.22749023153940495,0.23442434340045892,0.22402379613480417,0.1929677417168687,0.18179727952233504,MI
0.7763447587107435,0.7417458617792452,0.6938316340602482,0.6448799294725798,0.5999824534409708,0.6002946028969962,0.5948054052708529,0.5932118903557528,0.6042798203918478,0.6046941688105134,0.6046942133520754,0.6046942133520754,0.6048200122015972,0.6138541558385229,0.6097136747214891,0.6048943778050333,0.6172478372094345,0.6432066085690713,0.6796578325901477,0.7153961513982598,0.7670338744296812,0.8096326299564418,0.8438833096227043,0.8833131151706417,0.8990126281340025,0.9053300638992705,0.877494857217394,0.8431423247772867,0.8061971619789059,0.7776912737421773,0.7506799401657069,0.7343189044379343,0.7160281035548897,0.6964084889284821,0.6784312000077612,0.6548072033568242,0.6286725220032543,0.5835237954838348,0.5371442736965748,0.48543725005939375,0.4258700970911602,0.38247724810225403,0.3405678635375793,0.2892007068462852,0.22741761972823493,0.17492494626297717,0.11421820392108639,0.10705359263394199,0.1527817519273338,0.2013980911925084,0.24330976607239707,0.3028075294562522,0.364158505659276,0.41780139000373717,0.48238213736578617,0.5397143679459191,0.5969777652097155,0.6603407733831843,0.712813255356719,0.7746185301165878,0.8270467923564531,0.8903515547640759,0.9433395194748737,0.9930396593775308,1.0,0.9587580808321134,0.9062153734949181,0.8452601217743534,0.7918606550151055,0.7311431534276855,0.6779861622615297,0.6246728759741424,0.5787928307734753,0.5723830568498753,0.5724350738220094,0.5812470477719387,0.6176930465435628,0.656972340959741,0.700342645127169,0.7396921409820134,0.7659382834935577,0.7782390349304604,0.7373852508599739,0.6858908126241308,0.6414088118263779,0.6207624888944383,0.6072131327044645,0.6048156765061905,0.6128542768458485,0.6121335946846966,0.6205960040415408,0.6232458149370612,0.6272219409278974,0.5988155127249946,0.573152953944037,0.556739973115687,0.5592742775865625,0.5726667935017997,0.587583597063627,0.6147600094709116,0.6543798252463877,0.6982205122500038,0.7336501820535717,0.776641620410206,0.8202341820379235,0.8470660371000815,0.8736130207530795,0.860495854738017,0.8385164622466412,0.8049503774559574,0.7761171469522141,0.7479332192879506,0.7176936676052432,0.6920824757449942,0.6690173328124689,0.6540897271723649,0.6343363634453558,0.624812055939989,0.585181005545246,0.552721953101142,0.5123306327645039,0.45589338024128967,0.4038866158997032,0.3518596581215059,0.2928087508222861,0.23869713349755362,0.17869256709236003,0.12431621701555962,0.06014591754440657,0.008296685936638237,0.0,0.04817838375713901,0.10349956047216136,0.15215480531674253,0.19791233923253593,0.2585314949706601,0.31193096172990886,0.3733531648611539,0.42966411654810877,0.4878936211561564,0.5478200114385601,0.6025173304759845,0.6673620019514837,0.723003465705661,0.7819369398388676,0.841091607435017,0.8933026968273139,0.9232047806250634,0.9002432763037271,0.852548212875957,0.7889051026257108,0.7256698581715639,0.6730894707238679,0.61431519436371,0.5622564316271865,0.5277156723469605,0.5238625748979739,0.5199232566875214,0.5246818883240709,0.5523922243827917,0.586373487161103,0.6380239117327506,0.6770829777372556,0.7090955825194807,0.7313595948752285,0.7046048965844811,0.6565747422903678,0.6125999011922132,0.570764464783887,0.5563680506319235,0.5618143504201338,0.5605705696179011,0.5592260644954403,0.5715179986848229,0.5756169293718472,0.5877393033676963,0.5885325215035935,0.5885079856221731,0.5835166035596937,0.574205115737429,0.586539182693051,0.5943138563586228,0.6307137853950389,0.6628549386506819,0.7019554400022852,0.7388668565230976,0.7833409930557709,0.8223842537327526,0.8523407279097124,0.8601207829117619,0.8443214297648178,0.8126815117534552,0.7800975676899444,0.7514122219396864,0.7249645811961543,0.7008570046207843,0.6858175353924687,0.6695149210621598,0.6543924344406329,0.6350926462436504,0.6016538372837243,0.569435667050465,0.5154913624895201,0.46312086274481734,0.408052412278606,0.34994274183845553,0.28491143792944573,0.2288550772281761,0.17031167339549436,0.1108932443533246,0.07192619544282763,0.10114137110226773,0.15308608175286897,0.19027452873026585,0.23955637071479519,0.29379541235024087,0.3495674814421257,0.40802525244651777,0.46772337290630084,0.5226470481316463,0.5868124162499537,0.6396279144359283,0.7020377909006728,0.7609995540070797,0.816628093615634,0.8750772488293692,0.9297604133710355,0.9679651852196356,0.945860606402066,0.896712580540306,0.8374173991650009,0.7875228189291192,0.7496883542638133,0.7029842107168798,0.6483467734877397,0.5931333701543617,0.56453023353885,0.5709006069570468,0.5723859169208363,0.5794473640324656,0.6129147718457006,0.65033172357938,0.7010106712936874,0.7405685236905457,0.7746743520731907,0.778277597879359,0.7436381464973079,0.6948791319376992,0.6525704290810812,0.6188611436470643,0.6051671036053476,0.6050061267267699,0.6154852663813672,0.618846037288328,0.612701387663662,MI
